0	0	0	0	65827	0
1	0	0	0	65827	0
2	0	0	0	65827	0
3	914	0	0	65827	0
4	914	0	0	65827	0
5	914	0	0	65827	0
6	913	0	0	65827	0
7	914	0	0	65827	0
8	914	0	0	65827	-70786
9	914	0	0	65827	-70786
10	914	200	200	65827	-70786
11	914	200	200	65827	-70786
12	914	200	200	65827	-70786
13	914	200	200	65827	-70786
14	914	200	200	65827	-70766
15	914	200	200	65847	-70766
16	913	200	200	65847	-70766
17	914	200	200	65847	-70717
18	914	200	200	65892	-70717
19	914	200	200	65892	-70717
20	914	200	200	65892	-70660
21	914	200	200	65947	-70660
22	913	200	200	65947	-70660
23	914	200	200	65947	-70591
24	913	200	200	66005	-70591
25	911	200	200	66005	-70591
26	914	200	200	66005	-70522
27	913	200	200	66069	-70522
28	914	200	200	66069	-70522
29	914	200	200	66069	-70450
30	913	200	200	66132	-70450
31	913	200	200	66132	-70450
32	914	200	200	66132	-70377
33	913	200	200	66195	-70377
34	914	200	200	66195	-70377
35	914	200	200	66195	-70301
36	914	200	200	66261	-70301
37	914	200	200	66261	-70301
38	914	200	200	66261	-70231
39	914	200	200	66325	-70231
40	914	200	200	66325	-70231
41	914	200	200	66325	-70155
42	914	200	200	66392	-70155
43	914	200	200	66392	-70155
44	915	200	200	66392	-70082
45	914	200	200	66457	-70082
46	914	200	200	66457	-70082
47	914	200	200	66457	-70006
48	914	200	200	66457	-70006
49	914	200	200	66524	-70006
50	914	200	200	66524	-69931
51	913	200	200	66524	-69931
52	914	200	200	66588	-69931
53	914	200	200	66588	-69858
54	914	200	200	66588	-69858
55	914	200	200	66655	-69858
56	914	200	200	66655	-69785
57	913	200	200	66655	-69785
58	914	200	200	66721	-69785
59	914	200	200	66721	-69712
60	913	200	200	66721	-69712
61	914	200	200	66788	-69712
62	914	200	200	66788	-69638
63	913	200	200	66788	-69638
64	914	200	200	66855	-69638
65	914	200	200	66855	-69566
66	913	200	200	66855	-69566
67	915	200	200	66919	-69566
68	912	200	200	66919	-69497
69	913	200	200	66919	-69497
70	914	200	200	66984	-69497
71	912	200	200	66984	-69427
72	912	200	200	66984	-69427
73	914	200	200	67051	-69427
74	914	200	200	67051	-69354
75	913	200	200	67051	-69354
76	913	200	200	67117	-69354
77	914	200	200	67117	-69284
78	913	200	200	67117	-69284
79	913	200	200	67184	-69284
80	914	200	200	67184	-69213
81	914	200	200	67184	-69213
82	914	200	200	67247	-69213
83	914	200	200	67247	-69147
84	914	200	200	67247	-69147
85	914	200	200	67313	-69147
86	914	200	200	67313	-69077
87	913	200	200	67313	-69077
88	913	200	200	67377	-69077
89	913	200	200	67377	-69010
90	913	200	200	67377	-69010
91	916	200	200	67442	-69010
92	918	200	200	67442	-68939
93	918	200	200	67442	-68939
94	918	200	200	67506	-68939
95	918	200	200	67506	-68873
96	918	200	200	67506	-68873
97	918	200	200	67570	-68873
98	918	200	200	67570	-68805
99	918	200	200	67570	-68805
100	918	200	200	67634	-68805
101	917	200	200	67634	-68805
102	916	200	200	67634	-68740
103	916	200	200	67696	-68740
104	917	200	200	67696	-68740
105	917	200	200	67696	-68674
106	918	200	200	67756	-68674
107	918	200	200	67756	-68674
108	918	200	200	67756	-68611
109	917	200	200	67814	-68611
110	917	200	200	67814	-68611
111	917	200	200	67814	-68543
112	917	200	200	67877	-68543
113	918	200	200	67877	-68543
114	918	200	200	67877	-68479
115	919	200	200	67934	-68479
116	918	200	200	67934	-68479
117	918	200	200	67934	-68414
118	918	200	200	67992	-68414
119	918	200	200	67992	-68414
120	918	200	200	67992	-68350
121	918	200	200	68048	-68350
122	918	200	200	68048	-68350
123	917	200	200	68048	-68284
124	917	200	200	68106	-68284
125	915	200	200	68106	-68284
126	917	200	200	68106	-68222
127	918	200	200	68162	-68222
128	918	200	200	68162	-68222
129	918	200	200	68162	-68161
130	917	200	200	68213	-68161
131	916	200	200	68213	-68161
132	917	200	200	68213	-68098
133	918	200	200	68269	-68098
134	918	200	200	68269	-68098
135	918	200	200	68269	-68037
136	918	200	200	68321	-68037
137	918	200	200	68321	-68037
138	918	200	200	68321	-67975
139	918	200	200	68372	-67975
140	918	200	200	68372	-67975
141	918	200	200	68372	-67916
142	918	200	200	68425	-67916
143	917	200	200	68425	-67916
144	917	200	200	68425	-67854
145	917	200	200	68476	-67854
146	916	200	200	68476	-67854
147	915	200	200	68476	-67797
148	917	200	200	68530	-67797
149	917	200	200	68530	-67797
150	918	200	200	68530	-67738
151	918	200	200	68580	-67738
152	917	200	200	68580	-67738
153	916	200	200	68580	-67681
154	916	200	200	68629	-67681
155	917	200	200	68629	-67681
156	918	200	200	68629	-67624
157	918	200	200	68681	-67624
158	918	200	200	68681	-67624
159	919	200	200	68681	-67568
160	918	200	200	68732	-67568
161	918	200	200	68732	-67568
162	918	200	200	68732	-67514
163	918	200	200	68784	-67514
164	918	200	200	68784	-67514
165	918	200	200	68784	-67463
166	918	200	200	68784	-67463
167	917	200	200	68835	-67463
168	915	200	200	68835	-67410
169	914	200	200	68835	-67410
170	916	200	200	68884	-67410
171	918	200	200	68884	-67356
172	918	200	200	68884	-67356
173	918	200	200	68931	-67356
174	917	200	200	68931	-67302
175	916	200	200	68931	-67302
176	920	200	200	68979	-67302
177	921	200	200	68979	-67251
178	922	200	200	68979	-67251
179	922	200	200	69028	-67251
180	922	200	200	69028	-67200
181	921	200	200	69028	-67200
182	922	200	200	69077	-67200
183	919	200	200	69077	-67151
184	921	200	200	69077	-67151
185	922	200	200	69127	-67151
186	921	200	200	69127	-67105
187	922	200	200	69127	-67105
188	921	200	200	69175	-67105
189	921	200	200	69175	-67055
190	922	200	200	69175	-67055
191	921	200	200	69223	-67055
192	922	200	200	69223	-67006
193	920	200	200	69223	-67006
194	922	200	200	69269	-67006
195	921	200	200	69269	-66959
196	922	200	200	69269	-66959
197	921	200	200	69313	-66959
198	921	200	200	69313	-66910
199	922	200	200	69313	-66910
200	921	200	200	69362	-66910
201	922	200	200	69362	-66863
202	921	200	200	69362	-66863
203	922	200	200	69410	-66863
204	922	200	200	69410	-66819
205	922	200	200	69410	-66819
206	921	200	200	69455	-66819
207	922	200	200	69455	-66772
208	921	200	200	69455	-66772
209	921	200	200	69503	-66772
210	922	200	200	69503	-66725
211	920	200	200	69503	-66725
212	921	200	200	69550	-66725
213	921	200	200	69550	-66680
214	922	200	200	69550	-66680
215	921	200	200	69596	-66680
216	922	200	200	69596	-66633
217	921	200	200	69596	-66633
218	921	200	200	69643	-66633
219	921	200	200	69643	-66633
220	921	200	200	69643	-66588
221	920	200	200	69689	-66588
222	921	200	200	69689	-66588
223	921	200	200	69689	-66546
224	921	200	200	69737	-66546
225	922	200	200	69737	-66546
226	921	200	200	69737	-66499
227	922	200	200	69783	-66499
228	921	200	200	69783	-66499
229	922	200	200	69783	-66455
230	921	200	200	69825	-66455
231	922	200	200	69825	-66455
232	922	200	200	69825	-66414
233	922	200	200	69868	-66414
234	921	200	200	69868	-66414
235	921	200	200	69868	-66370
236	921	200	200	69914	-66370
237	921	200	200	69914	-66370
238	922	200	200	69914	-66326
239	921	200	200	69957	-66326
240	922	200	200	69957	-66326
241	921	200	200	69957	-66283
242	922	200	200	70000	-66283
243	921	200	200	70000	-66283
244	922	200	200	70000	-66240
245	921	200	200	70045	-66240
246	921	200	200	70045	-66240
247	921	200	200	70045	-66197
248	921	200	200	70090	-66197
249	922	200	200	70090	-66197
250	921	200	200	70090	-66159
251	921	200	200	70135	-66159
252	919	200	200	70135	-66159
253	916	200	200	70135	-66117
254	917	200	200	70180	-66117
255	918	200	200	70180	-66117
256	918	200	200	70180	-66074
257	916	200	200	70221	-66074
258	916	200	200	70221	-66074
259	918	200	200	70221	-66033
260	917	200	200	70262	-66033
261	918	200	200	70262	-66033
262	918	200	200	70262	-65992
263	918	200	200	70307	-65992
264	918	200	200	70307	-65992
265	918	200	200	70307	-65950
266	918	200	200	70350	-65950
267	918	200	200	70350	-65950
268	917	200	200	70350	-65909
269	917	200	200	70391	-65909
270	918	200	200	70391	-65909
271	915	200	200	70391	-65870
272	918	200	200	70437	-65870
273	918	200	200	70437	-65870
274	918	200	200	70437	-65828
275	918	200	200	70479	-65828
276	918	200	200	70479	-65828
277	918	200	200	70479	-65787
278	917	200	200	70522	-65787
279	916	200	200	70522	-65787
280	918	200	200	70522	-65748
281	917	200	200	70569	-65748
282	918	200	200	70569	-65748
283	918	200	200	70569	-65706
284	917	200	200	70569	-65706
285	916	200	200	70612	-65706
286	916	200	200	70612	-65666
287	918	200	200	70612	-65666
288	917	200	200	70654	-65666
289	918	200	200	70654	-65626
290	918	200	200	70654	-65626
291	918	200	200	70699	-65626
292	918	200	200	70699	-65586
293	917	200	200	70699	-65586
294	918	200	200	70743	-65586
295	916	200	200	70743	-65545
296	916	200	200	70743	-65545
297	918	200	200	70786	-65545
298	918	200	200	70786	-65505
299	918	200	200	70786	-65505
300	918	200	200	70831	-65505
301	918	200	200	70831	-65466
302	915	200	200	70831	-65466
303	916	200	200	70874	-65466
304	918	200	200	70874	-65428
305	918	200	200	70874	-65428
306	918	200	200	70916	-65428
307	918	200	200	70916	-65390
308	918	200	200	70916	-65390
309	918	200	200	70958	-65390
310	917	200	200	70958	-65352
311	918	200	200	70958	-65352
312	917	200	200	70998	-65352
313	917	200	200	70998	-65314
314	918	200	200	70998	-65314
315	918	200	200	71039	-65314
316	918	200	200	71039	-65276
317	917	200	200	71039	-65276
318	918	200	200	71083	-65276
319	916	200	200	71083	-65239
320	917	200	200	71083	-65239
321	918	200	200	71126	-65239
322	918	200	200	71126	-65203
323	918	200	200	71126	-65203
324	914	200	200	71169	-65203
325	913	200	200	71169	-65167
326	911	200	200	71169	-65167
327	912	200	200	71212	-65167
328	914	200	200	71212	-65131
329	913	200	200	71212	-65131
330	913	200	200	71254	-65131
331	914	200	200	71254	-65097
332	914	200	200	71254	-65097
333	913	200	200	71295	-65097
334	912	200	200	71295	-65064
335	914	200	200	71295	-65064
336	913	200	200	71336	-65064
337	914	200	200	71336	-65064
338	914	200	200	71336	-65029
339	914	200	200	71377	-65029
340	913	200	200	71377	-65029
341	913	200	200	71377	-64992
342	914	200	200	71420	-64992
343	911	200	200	71420	-64992
344	913	200	200	71420	-64957
345	914	200	200	71462	-64957
346	914	200	200	71462	-64957
347	913	200	200	71462	-64924
348	913	200	200	71501	-64924
349	913	200	200	71501	-64924
350	913	200	200	71501	-64890
351	914	200	200	71544	-64890
352	913	200	200	71544	-64890
353	914	200	200	71544	-64853
354	913	200	200	71586	-64853
355	913	200	200	71586	-64853
356	913	200	200	71586	-64817
357	912	200	200	71624	-64817
358	913	200	200	71624	-64817
359	914	200	200	71624	-64784
360	913	200	200	71666	-64784
361	914	200	200	71666	-64784
362	913	200	200	71666	-64748
363	913	200	200	71708	-64748
364	913	200	200	71708	-64748
365	913	200	200	71708	-64713
366	914	200	200	71748	-64713
367	913	200	200	71748	-64713
368	914	200	200	71748	-64680
369	913	200	200	71791	-64680
370	914	200	200	71791	-64680
371	914	200	200	71791	-64648
372	913	200	200	71830	-64648
373	914	200	200	71830	-64648
374	913	200	200	71830	-64615
375	914	200	200	71868	-64615
376	913	200	200	71868	-64615
377	914	200	200	71868	-64583
378	913	200	200	71905	-64583
379	913	200	200	71905	-64583
380	913	200	200	71905	-64552
381	913	200	200	71947	-64552
382	914	200	200	71947	-64552
383	913	200	200	71947	-64522
384	913	200	200	71986	-64522
385	913	200	200	71986	-64522
386	912	200	200	71986	-64489
387	913	200	200	72024	-64489
388	913	200	200	72024	-64489
389	914	200	200	72024	-64454
390	914	200	200	72061	-64454
391	914	200	200	72061	-64454
392	913	200	200	72061	-64421
393	914	200	200	72102	-64421
394	913	200	200	72102	-64421
395	914	200	200	72102	-64392
396	914	200	200	72140	-64392
397	913	200	200	72140	-64392
398	914	200	200	72140	-64360
399	913	200	200	72179	-64360
400	914	200	200	72179	-64360
401	913	200	200	72179	-64329
402	913	200	200	72179	-64329
403	914	200	200	72219	-64329
404	913	200	200	72219	-64298
405	914	200	200	72219	-64298
406	913	200	200	72256	-64298
407	914	200	200	72256	-64269
408	913	200	200	72256	-64269
409	913	200	200	72292	-64269
410	914	200	200	72292	-64239
411	913	200	200	72292	-64239
412	913	200	200	72328	-64239
413	913	200	200	72328	-64208
414	914	200	200	72328	-64208
415	914	200	200	72368	-64208
416	913	200	200	72368	-64176
417	914	200	200	72368	-64176
418	913	200	200	72404	-64176
419	914	200	200	72404	-64145
420	913	200	200	72404	-64145
421	913	200	200	72440	-64145
422	913	200	200	72440	-64116
423	913	200	200	72440	-64116
424	911	200	200	72479	-64116
425	909	200	200	72479	-64087
426	910	200	200	72479	-64087
427	910	200	200	72518	-64087
428	910	200	200	72518	-64056
429	909	200	200	72518	-64056
430	910	200	200	72556	-64056
431	909	200	200	72556	-64024
432	910	200	200	72556	-64024
433	910	200	200	72596	-64024
434	909	200	200	72596	-63995
435	909	200	200	72596	-63995
436	910	200	200	72636	-63995
437	908	200	200	72636	-63967
438	909	200	200	72636	-63967
439	910	200	200	72676	-63967
440	910	200	200	72676	-63939
441	909	200	200	72676	-63939
442	909	200	200	72715	-63939
443	910	200	200	72715	-63910
444	909	200	200	72715	-63910
445	910	200	200	72756	-63910
446	910	200	200	72756	-63882
447	910	200	200	72756	-63882
448	909	200	200	72795	-63882
449	908	200	200	72795	-63882
450	910	200	200	72795	-63853
451	910	200	200	72832	-63853
452	910	200	200	72832	-63853
453	909	200	200	72832	-63824
454	910	200	200	72872	-63824
455	908	200	200	72872	-63824
456	907	200	200	72872	-63794
457	910	200	200	72910	-63794
458	910	200	200	72910	-63794
459	909	200	200	72910	-63764
460	910	200	200	72949	-63764
461	910	200	200	72949	-63764
462	910	200	200	72949	-63735
463	908	200	200	72987	-63735
464	907	200	200	72987	-63735
465	910	200	200	72987	-63706
466	910	200	200	73023	-63706
467	909	200	200	73023	-63706
468	910	200	200	73023	-63678
469	910	200	200	73061	-63678
470	908	200	200	73061	-63678
471	910	200	200	73061	-63648
472	910	200	200	73099	-63648
473	910	200	200	73099	-63648
474	909	200	200	73099	-63620
475	908	200	200	73138	-63620
476	910	200	200	73138	-63620
477	909	200	200	73138	-63594
478	909	200	200	73176	-63594
479	910	200	200	73176	-63594
480	910	200	200	73176	-63567
481	909	200	200	73215	-63567
482	908	200	200	73215	-63567
483	910	200	200	73215	-63540
484	910	200	200	73254	-63540
485	909	200	200	73254	-63540
486	910	200	200	73254	-63512
487	910	200	200	73291	-63512
488	909	200	200	73291	-63512
489	910	200	200	73291	-63483
490	909	200	200	73330	-63483
491	910	200	200	73330	-63483
492	908	200	200	73330	-63456
493	908	200	200	73367	-63456
494	910	200	200	73367	-63456
495	910	200	200	73367	-63430
496	910	200	200	73403	-63430
497	909	200	200	73403	-63430
498	910	200	200	73403	-63403
499	909	200	200	73442	-63403
500	910	200	200	73442	-63403
501	909	200	200	73442	-63378
502	910	200	200	73480	-63378
503	908	200	200	73480	-63378
504	908	200	200	73480	-63351
505	910	200	200	73517	-63351
506	910	200	200	73517	-63351
507	910	200	200	73517	-63325
508	909	200	200	73552	-63325
509	911	200	200	73552	-63325
510	908	200	200	73552	-63300
511	910	200	200	73590	-63300
512	910	200	200	73590	-63300
513	910	200	200	73590	-63275
514	909	200	200	73627	-63275
515	910	200	200	73627	-63275
516	909	200	200	73627	-63252
517	910	200	200	73662	-63252
518	909	200	200	73662	-63252
519	910	200	200	73662	-63229
520	909	200	200	73662	-63229
521	910	200	200	73698	-63229
522	910	200	200	73698	-63205
523	911	200	200	73698	-63205
524	909	200	200	73735	-63205
525	910	200	200	73735	-63181
526	909	200	200	73735	-63181
527	910	200	200	73773	-63181
528	910	200	200	73773	-63158
529	910	200	200	73773	-63158
530	910	200	200	73809	-63158
531	910	200	200	73809	-63134
532	910	200	200	73809	-63134
533	910	200	200	73846	-63134
534	909	200	200	73846	-63110
535	909	200	200	73846	-63110
536	909	200	200	73881	-63110
537	907	200	200	73881	-63085
538	906	200	200	73881	-63085
539	906	200	200	73913	-63085
540	905	200	200	73913	-63061
541	906	200	200	73913	-63061
542	905	200	200	73945	-63061
543	906	200	200	73945	-63038
544	905	200	200	73945	-63038
545	906	200	200	73979	-63038
546	905	200	200	73979	-63016
547	905	200	200	73979	-63016
548	906	200	200	74017	-63016
549	905	200	200	74017	-62994
550	906	200	200	74017	-62994
551	905	200	200	74050	-62994
552	906	200	200	74050	-62972
553	905	200	200	74050	-62972
554	906	200	200	74083	-62972
555	905	200	200	74083	-62949
556	905	200	200	74083	-62949
557	905	200	200	74116	-62949
558	906	200	200	74116	-62928
559	906	200	200	74116	-62928
560	905	200	200	74152	-62928
561	906	200	200	74152	-62909
562	905	200	200	74152	-62909
563	906	200	200	74183	-62909
564	906	200	200	74183	-62890
565	906	200	200	74183	-62890
566	906	200	200	74216	-62890
567	906	200	200	74216	-62869
568	905	200	200	74216	-62869
569	906	200	200	74248	-62869
570	906	200	200	74248	-62848
571	906	200	200	74248	-62848
572	906	200	200	74282	-62848
573	906	200	200	74282	-62824
574	906	200	200	74282	-62824
575	906	200	200	74312	-62824
576	905	200	200	74312	-62824
577	906	200	200	74312	-62802
578	906	200	200	74343	-62802
579	905	200	200	74343	-62802
580	906	200	200	74343	-62779
581	905	200	200	74375	-62779
582	907	200	200	74375	-62779
583	906	200	200	74375	-62758
584	905	200	200	74410	-62758
585	905	200	200	74410	-62758
586	906	200	200	74410	-62737
587	906	200	200	74442	-62737
588	905	200	200	74442	-62737
589	907	200	200	74442	-62715
590	906	200	200	74473	-62715
591	906	200	200	74473	-62715
592	905	200	200	74473	-62691
593	905	200	200	74505	-62691
594	905	200	200	74505	-62691
595	905	200	200	74505	-62668
596	906	200	200	74539	-62668
597	905	200	200	74539	-62668
598	906	200	200	74539	-62646
599	904	200	200	74570	-62646
600	904	200	200	74570	-62646
601	906	200	200	74570	-62625
602	905	200	200	74604	-62625
603	906	200	200	74604	-62625
604	906	200	200	74604	-62606
605	906	200	200	74638	-62606
606	904	200	200	74638	-62606
607	904	200	200	74638	-62587
608	906	200	200	74675	-62587
609	906	200	200	74675	-62587
610	906	200	200	74675	-62568
611	906	200	200	74709	-62568
612	906	200	200	74709	-62568
613	904	200	200	74709	-62549
614	905	200	200	74742	-62549
615	906	200	200	74742	-62549
616	906	200	200	74742	-62529
617	906	200	200	74775	-62529
618	906	200	200	74775	-62529
619	906	200	200	74775	-62509
620	904	200	200	74810	-62509
621	905	200	200	74810	-62509
622	906	200	200	74810	-62488
623	906	200	200	74844	-62488
624	905	200	200	74844	-62488
625	906	200	200	74844	-62469
626	906	200	200	74876	-62469
627	904	200	200	74876	-62469
628	904	200	200	74876	-62448
629	906	200	200	74910	-62448
630	906	200	200	74910	-62448
631	906	200	200	74910	-62426
632	906	200	200	74943	-62426
633	906	200	200	74943	-62426
634	905	200	200	74943	-62402
635	904	200	200	74979	-62402
636	906	200	200	74979	-62402
637	906	200	200	74979	-62380
638	906	200	200	74979	-62380
639	906	200	200	75012	-62380
640	906	200	200	75012	-62359
641	904	200	200	75012	-62359
642	905	200	200	75046	-62359
643	906	200	200	75046	-62339
644	906	200	200	75046	-62339
645	906	200	200	75078	-62339
646	906	200	200	75078	-62317
647	906	200	200	75078	-62317
648	903	200	200	75112	-62317
649	904	200	200	75112	-62297
650	905	200	200	75112	-62297
651	906	200	200	75146	-62297
652	906	200	200	75146	-62277
653	906	200	200	75146	-62277
654	906	200	200	75180	-62277
655	905	200	200	75180	-62258
656	904	200	200	75180	-62258
657	907	200	200	75212	-62258
658	906	200	200	75212	-62240
659	906	200	200	75212	-62240
660	906	200	200	75246	-62240
661	906	200	200	75246	-62225
662	904	200	200	75246	-62225
663	903	200	200	75278	-62225
664	907	200	200	75278	-62208
665	906	200	200	75278	-62208
666	906	200	200	75310	-62208
667	906	200	200	75310	-62191
668	906	200	200	75310	-62191
669	904	200	200	75343	-62191
670	904	200	200	75343	-62174
671	904	200	200	75343	-62174
672	906	200	200	75376	-62174
673	905	200	200	75376	-62155
674	906	200	200	75376	-62155
675	906	200	200	75407	-62155
676	906	200	200	75407	-62138
677	905	200	200	75407	-62138
678	904	200	200	75438	-62138
679	906	200	200	75438	-62120
680	905	200	200	75438	-62120
681	906	200	200	75470	-62120
682	906	200	200	75470	-62104
683	905	200	200	75470	-62104
684	905	200	200	75505	-62104
685	906	200	200	75505	-62089
686	906	200	200	75505	-62089
687	905	200	200	75536	-62089
688	906	200	200	75536	-62072
689	905	200	200	75536	-62072
690	905	200	200	75566	-62072
691	905	200	200	75566	-62072
692	905	200	200	75566	-62056
693	906	200	200	75596	-62056
694	906	200	200	75596	-62056
695	905	200	200	75596	-62039
696	906	200	200	75630	-62039
697	906	200	200	75630	-62039
698	906	200	200	75630	-62020
699	906	200	200	75663	-62020
700	906	200	200	75663	-62020
701	902	200	200	75663	-62002
702	902	200	200	75694	-62002
703	902	200	200	75694	-62002
704	900	200	200	75694	-61983
705	901	200	200	75726	-61983
706	902	200	200	75726	-61983
707	902	200	200	75726	-61968
708	902	200	200	75759	-61968
709	902	200	200	75759	-61968
710	902	200	200	75759	-61954
711	902	200	200	75792	-61954
712	902	200	200	75792	-61954
713	902	200	200	75792	-61941
714	901	200	200	75825	-61941
715	901	200	200	75825	-61941
716	902	200	200	75825	-61929
717	900	200	200	75856	-61929
718	901	200	200	75856	-61929
719	902	200	200	75856	-61917
720	901	200	200	75888	-61917
721	902	200	200	75888	-61917
722	902	200	200	75888	-61905
723	902	200	200	75916	-61905
724	902	200	200	75916	-61905
725	902	200	200	75916	-61893
726	902	200	200	75945	-61893
727	900	200	200	75945	-61893
728	901	200	200	75945	-61880
729	902	200	200	75972	-61880
730	901	200	200	75972	-61880
731	902	200	200	75972	-61864
732	902	200	200	76002	-61864
733	902	200	200	76002	-61864
734	903	200	200	76002	-61848
735	902	200	200	76031	-61848
736	903	200	200	76031	-61848
737	902	200	200	76031	-61833
738	902	200	200	76064	-61833
739	902	200	200	76064	-61833
740	902	200	200	76064	-61816
741	901	200	200	76093	-61816
742	903	200	200	76093	-61816
743	901	200	200	76093	-61800
744	901	200	200	76122	-61800
745	902	200	200	76122	-61800
746	900	200	200	76122	-61783
747	901	200	200	76150	-61783
748	902	200	200	76150	-61783
749	900	200	200	76150	-61766
750	902	200	200	76180	-61766
751	902	200	200	76180	-61766
752	902	200	200	76180	-61748
753	901	200	200	76208	-61748
754	902	200	200	76208	-61748
755	902	200	200	76208	-61730
756	902	200	200	76208	-61730
757	902	200	200	76234	-61730
758	902	200	200	76234	-61713
759	902	200	200	76234	-61713
760	901	200	200	76261	-61713
761	902	200	200	76261	-61695
762	900	200	200	76261	-61695
763	901	200	200	76287	-61695
764	902	200	200	76287	-61677
765	902	200	200	76287	-61677
766	902	200	200	76316	-61677
767	902	200	200	76316	-61660
768	902	200	200	76316	-61660
769	902	200	200	76344	-61660
770	901	200	200	76344	-61645
771	900	200	200	76344	-61645
772	901	200	200	76370	-61645
773	901	200	200	76370	-61629
774	901	200	200	76370	-61629
775	902	200	200	76396	-61629
776	902	200	200	76396	-61611
777	902	200	200	76396	-61611
778	902	200	200	76423	-61611
779	903	200	200	76423	-61596
780	902	200	200	76423	-61596
781	901	200	200	76453	-61596
782	901	200	200	76453	-61581
783	901	200	200	76453	-61581
784	902	200	200	76481	-61581
785	902	200	200	76481	-61568
786	902	200	200	76481	-61568
787	902	200	200	76509	-61568
788	902	200	200	76509	-61555
789	902	200	200	76509	-61555
790	902	200	200	76534	-61555
791	902	200	200	76534	-61543
792	902	200	200	76534	-61543
793	902	200	200	76560	-61543
794	902	200	200	76560	-61530
795	902	200	200	76560	-61530
796	902	200	200	76587	-61530
797	901	200	200	76587	-61516
798	900	200	200	76587	-61516
799	900	200	200	76613	-61516
800	900	200	200	76613	-61502
801	901	200	200	76613	-61502
802	902	200	200	76642	-61502
803	902	200	200	76642	-61488
804	903	200	200	76642	-61488
805	902	200	200	76670	-61488
806	900	200	200	76670	-61473
807	900	200	200	76670	-61473
808	901	200	200	76701	-61473
809	902	200	200	76701	-61473
810	902	200	200	76701	-61458
811	902	200	200	76730	-61458
812	901	200	200	76730	-61458
813	902	200	200	76730	-61442
814	901	200	200	76760	-61442
815	903	200	200	76760	-61442
816	902	200	200	76760	-61427
817	902	200	200	76788	-61427
818	901	200	200	76788	-61427
819	902	200	200	76788	-61412
820	901	200	200	76818	-61412
821	902	200	200	76818	-61412
822	902	200	200	76818	-61396
823	902	200	200	76849	-61396
824	901	200	200	76849	-61396
825	902	200	200	76849	-61381
826	901	200	200	76878	-61381
827	902	200	200	76878	-61381
828	902	200	200	76878	-61365
829	902	200	200	76906	-61365
830	900	200	200	76906	-61365
831	902	200	200	76906	-61350
832	900	200	200	76933	-61350
833	902	200	200	76933	-61350
834	902	200	200	76933	-61333
835	902	200	200	76962	-61333
836	902	200	200	76962	-61333
837	902	200	200	76962	-61318
838	902	200	200	76990	-61318
839	901	200	200	76990	-61318
840	902	200	200	76990	-61303
841	902	200	200	77020	-61303
842	902	200	200	77020	-61303
843	902	200	200	77020	-61287
844	902	200	200	77049	-61287
845	901	200	200	77049	-61287
846	902	200	200	77049	-61272
847	902	200	200	77078	-61272
848	901	200	200	77078	-61272
849	902	200	200	77078	-61258
850	901	200	200	77105	-61258
851	902	200	200	77105	-61258
852	902	200	200	77105	-61244
853	902	200	200	77132	-61244
854	902	200	200	77132	-61244
855	902	200	200	77132	-61231
856	903	200	200	77132	-61231
857	901	200	200	77161	-61231
858	902	200	200	77161	-61218
859	902	200	200	77161	-61218
860	902	200	200	77188	-61218
861	902	200	200	77188	-61207
862	902	200	200	77188	-61207
863	902	200	200	77216	-61207
864	901	200	200	77216	-61197
865	902	200	200	77216	-61197
866	901	200	200	77242	-61197
867	901	200	200	77242	-61186
868	902	200	200	77242	-61186
869	901	200	200	77268	-61186
870	902	200	200	77268	-61174
871	902	200	200	77268	-61174
872	902	200	200	77294	-61174
873	902	200	200	77294	-61161
874	902	200	200	77294	-61161
875	902	200	200	77319	-61161
876	902	200	200	77319	-61148
877	902	200	200	77319	-61148
878	901	200	200	77346	-61148
879	902	200	200	77346	-61136
880	902	200	200	77346	-61136
881	901	200	200	77372	-61136
882	901	200	200	77372	-61124
883	901	200	200	77372	-61124
884	901	200	200	77398	-61124
885	902	200	200	77398	-61110
886	901	200	200	77398	-61110
887	902	200	200	77425	-61110
888	901	200	200	77425	-61095
889	902	200	200	77425	-61095
890	900	200	200	77451	-61095
891	901	200	200	77451	-61081
892	902	200	200	77451	-61081
893	900	200	200	77477	-61081
894	902	200	200	77477	-61066
895	902	200	200	77477	-61066
896	902	200	200	77502	-61066
897	901	200	200	77502	-61052
898	902	200	200	77502	-61052
899	900	200	200	77529	-61052
900	901	200	200	77529	-61036
901	901	200	200	77529	-61036
902	900	200	200	77557	-61036
903	902	200	200	77557	-61022
904	901	200	200	77557	-61022
905	902	200	200	77582	-61022
906	901	200	200	77582	-61008
907	902	200	200	77582	-61008
908	901	200	200	77606	-61008
909	901	200	200	77606	-60995
910	902	200	200	77606	-60995
911	902	200	200	77630	-60995
912	902	200	200	77630	-60981
913	901	200	200	77630	-60981
914	902	200	200	77655	-60981
915	901	200	200	77655	-60981
916	902	200	200	77655	-60969
917	902	200	200	77682	-60969
918	902	200	200	77682	-60969
919	902	200	200	77682	-60957
920	902	200	200	77708	-60957
921	902	200	200	77708	-60957
922	902	200	200	77708	-60945
923	902	200	200	77735	-60945
924	901	200	200	77735	-60945
925	902	200	200	77735	-60932
926	902	200	200	77760	-60932
927	901	200	200	77760	-60932
928	902	200	200	77760	-60919
929	901	200	200	77786	-60919
930	902	200	200	77786	-60919
931	902	200	200	77786	-60905
932	900	200	200	77813	-60905
933	902	200	200	77813	-60905
934	900	200	200	77813	-60894
935	902	200	200	77840	-60894
936	902	200	200	77840	-60894
937	902	200	200	77840	-60884
938	901	200	200	77867	-60884
939	901	200	200	77867	-60884
940	900	200	200	77867	-60874
941	902	200	200	77892	-60874
942	902	200	200	77892	-60874
943	902	200	200	77892	-60866
944	901	200	200	77920	-60866
945	900	200	200	77920	-60866
946	900	200	200	77920	-60856
947	901	200	200	77945	-60856
948	901	200	200	77945	-60856
949	903	200	200	77945	-60846
950	901	200	200	77969	-60846
951	901	200	200	77969	-60846
952	901	200	200	77969	-60836
953	901	200	200	77993	-60836
954	902	200	200	77993	-60836
955	902	200	200	77993	-60823
956	902	200	200	78016	-60823
957	901	200	200	78016	-60823
958	900	200	200	78016	-60813
959	901	200	200	78040	-60813
960	902	200	200	78040	-60813
961	902	200	200	78040	-60802
962	902	200	200	78066	-60802
963	901	200	200	78066	-60802
964	900	200	200	78066	-60790
965	901	200	200	78093	-60790
966	902	200	200	78093	-60790
967	902	200	200	78093	-60776
968	901	200	200	78119	-60776
969	900	200	200	78119	-60776
970	900	200	200	78119	-60763
971	901	200	200	78142	-60763
972	902	200	200	78142	-60763
973	902	200	200	78142	-60748
974	901	200	200	78142	-60748
975	900	200	200	78165	-60748
976	901	200	200	78165	-60734
977	901	200	200	78165	-60734
978	902	200	200	78189	-60734
979	902	200	200	78189	-60720
980	902	200	200	78189	-60720
981	900	200	200	78212	-60720
982	900	200	200	78212	-60707
983	901	200	200	78212	-60707
984	902	200	200	78237	-60707
985	902	200	200	78237	-60693
986	902	200	200	78237	-60693
987	901	200	200	78259	-60693
988	900	200	200	78259	-60679
989	900	200	200	78259	-60679
990	901	200	200	78280	-60679
991	902	200	200	78280	-60665
992	902	200	200	78280	-60665
993	901	200	200	78302	-60665
994	901	200	200	78302	-60649
995	900	200	200	78302	-60649
996	902	200	200	78324	-60649
997	902	200	200	78324	-60635
998	902	200	200	78324	-60635
999	900	200	200	78347	-60635
1000	902	200	200	78347	-60621
1001	902	200	200	78347	-60621
1002	902	200	200	78371	-60621
1003	902	200	200	78371	-60609
1004	902	200	200	78371	-60609
1005	899	200	200	78394	-60609
1006	902	200	200	78394	-60596
1007	902	200	200	78394	-60596
1008	902	200	200	78416	-60596
1009	902	200	200	78416	-60583
1010	902	200	200	78416	-60583
1011	901	200	200	78439	-60583
1012	901	200	200	78439	-60571
1013	901	200	200	78439	-60571
1014	902	200	200	78461	-60571
1015	902	200	200	78461	-60560
1016	902	200	200	78461	-60560
1017	902	200	200	78486	-60560
1018	901	200	200	78486	-60551
1019	902	200	200	78486	-60551
1020	902	200	200	78512	-60551
1021	902	200	200	78512	-60541
1022	901	200	200	78512	-60541
1023	902	200	200	78534	-60541
1024	902	200	200	78534	-60533
1025	902	200	200	78534	-60533
1026	902	200	200	78557	-60533
1027	902	200	200	78557	-60523
1028	902	200	200	78557	-60523
1029	901	200	200	78579	-60523
1030	902	200	200	78579	-60514
1031	900	200	200	78579	-60514
1032	900	200	200	78601	-60514
1033	902	200	200	78601	-60514
1034	901	200	200	78601	-60503
1035	902	200	200	78622	-60503
1036	901	200	200	78622	-60503
1037	902	200	200	78622	-60492
1038	901	200	200	78644	-60492
1039	901	200	200	78644	-60492
1040	901	200	200	78644	-60480
1041	902	200	200	78666	-60480
1042	902	200	200	78666	-60480
1043	902	200	200	78666	-60467
1044	903	200	200	78690	-60467
1045	901	200	200	78690	-60467
1046	902	200	200	78690	-60454
1047	902	200	200	78713	-60454
1048	901	200	200	78713	-60454
1049	902	200	200	78713	-60441
1050	902	200	200	78739	-60441
1051	902	200	200	78739	-60441
1052	902	200	200	78739	-60430
1053	902	200	200	78765	-60430
1054	901	200	200	78765	-60430
1055	901	200	200	78765	-60417
1056	902	200	200	78789	-60417
1057	901	200	200	78789	-60417
1058	902	200	200	78789	-60402
1059	899	200	200	78814	-60402
1060	901	200	200	78814	-60402
1061	901	200	200	78814	-60387
1062	900	200	200	78837	-60387
1063	902	200	200	78837	-60387
1064	901	200	200	78837	-60373
1065	902	200	200	78861	-60373
1066	902	200	200	78861	-60373
1067	903	200	200	78861	-60357
1068	900	200	200	78886	-60357
1069	902	200	200	78886	-60357
1070	901	200	200	78886	-60344
1071	902	200	200	78910	-60344
1072	902	200	200	78910	-60344
1073	902	200	200	78910	-60329
1074	902	200	200	78934	-60329
1075	902	200	200	78934	-60329
1076	901	200	200	78934	-60315
1077	902	200	200	78956	-60315
1078	901	200	200	78956	-60315
1079	902	200	200	78956	-60302
1080	903	200	200	78977	-60302
1081	902	200	200	78977	-60302
1082	902	200	200	78977	-60289
1083	902	200	200	79001	-60289
1084	901	200	200	79001	-60289
1085	901	200	200	79001	-60276
1086	902	200	200	79026	-60276
1087	902	200	200	79026	-60276
1088	902	200	200	79026	-60263
1089	902	200	200	79050	-60263
1090	902	200	200	79050	-60263
1091	902	200	200	79050	-60250
1092	901	200	200	79076	-60250
1093	902	200	200	79076	-60250
1094	902	200	200	79076	-60237
1095	902	200	200	79100	-60237
1096	902	200	200	79100	-60237
1097	902	200	200	79100	-60226
1098	902	200	200	79100	-60226
1099	903	200	200	79125	-60226
1100	900	200	200	79125	-60216
1101	902	200	200	79125	-60216
1102	902	200	200	79149	-60216
1103	902	200	200	79149	-60206
1104	901	200	200	79149	-60206
1105	902	200	200	79172	-60206
1106	902	200	200	79172	-60196
1107	902	200	200	79172	-60196
1108	902	200	200	79197	-60196
1109	902	200	200	79197	-60189
1110	901	200	200	79197	-60189
1111	901	200	200	79222	-60189
1112	901	200	200	79222	-60182
1113	902	200	200	79222	-60182
1114	902	200	200	79247	-60182
1115	902	200	200	79247	-60175
1116	902	200	200	79247	-60175
1117	902	200	200	79271	-60175
1118	900	200	200	79271	-60168
1119	903	200	200	79271	-60168
1120	902	200	200	79293	-60168
1121	902	200	200	79293	-60160
1122	902	200	200	79293	-60160
1123	903	200	200	79314	-60160
1124	901	200	200	79314	-60151
1125	902	200	200	79314	-60151
1126	902	200	200	79337	-60151
1127	902	200	200	79337	-60142
1128	902	200	200	79337	-60142
1129	902	200	200	79359	-60142
1130	901	200	200	79359	-60132
1131	902	200	200	79359	-60132
1132	902	200	200	79383	-60132
1133	901	200	200	79383	-60121
1134	902	200	200	79383	-60121
1135	902	200	200	79407	-60121
1136	902	200	200	79407	-60109
1137	902	200	200	79407	-60109
1138	902	200	200	79430	-60109
1139	902	200	200	79430	-60098
1140	901	200	200	79430	-60098
1141	903	200	200	79456	-60098
1142	901	200	200	79456	-60087
1143	902	200	200	79456	-60087
1144	902	200	200	79480	-60087
1145	901	200	200	79480	-60075
1146	902	200	200	79480	-60075
1147	901	200	200	79504	-60075
1148	902	200	200	79504	-60062
1149	902	200	200	79504	-60062
1150	903	200	200	79527	-60062
1151	901	200	200	79527	-60062
1152	902	200	200	79527	-60050
1153	902	200	200	79550	-60050
1154	901	200	200	79550	-60050
1155	902	200	200	79550	-60039
1156	902	200	200	79573	-60039
1157	901	200	200	79573	-60039
1158	902	200	200	79573	-60027
1159	903	200	200	79598	-60027
1160	902	200	200	79598	-60027
1161	902	200	200	79598	-60016
1162	902	200	200	79619	-60016
1163	902	200	200	79619	-60016
1164	902	200	200	79619	-60004
1165	902	200	200	79642	-60004
1166	901	200	200	79642	-60004
1167	902	200	200	79642	-59992
1168	902	200	200	79662	-59992
1169	902	200	200	79662	-59992
1170	902	200	200	79662	-59979
1171	902	200	200	79682	-59979
1172	901	200	200	79682	-59979
1173	902	200	200	79682	-59968
1174	902	200	200	79703	-59968
1175	902	200	200	79703	-59968
1176	902	200	200	79703	-59955
1177	902	200	200	79727	-59955
1178	901	200	200	79727	-59955
1179	903	200	200	79727	-59941
1180	902	200	200	79750	-59941
1181	902	200	200	79750	-59941
1182	901	200	200	79750	-59930
1183	902	200	200	79774	-59930
1184	901	200	200	79774	-59930
1185	901	200	200	79774	-59920
1186	902	200	200	79796	-59920
1187	901	200	200	79796	-59920
1188	901	200	200	79796	-59910
1189	900	200	200	79818	-59910
1190	902	200	200	79818	-59910
1191	901	200	200	79818	-59900
1192	901	200	200	79843	-59900
1193	902	200	200	79843	-59900
1194	901	200	200	79843	-59891
1195	901	200	200	79866	-59891
1196	902	200	200	79866	-59891
1197	901	200	200	79866	-59882
1198	902	200	200	79891	-59882
1199	902	200	200	79891	-59882
1200	902	200	200	79891	-59874
1201	902	200	200	79915	-59874
1202	902	200	200	79915	-59874
1203	902	200	200	79915	-59865
1204	902	200	200	79936	-59865
1205	903	200	200	79936	-59865
1206	901	200	200	79936	-59858
1207	901	200	200	79958	-59858
1208	902	200	200	79958	-59858
1209	901	200	200	79958	-59851
1210	902	200	200	79979	-59851
1211	901	200	200	79979	-59851
1212	902	200	200	79979	-59845
1213	901	200	200	79998	-59845
1214	902	200	200	79998	-59845
1215	902	200	200	79998	-59837
1216	901	200	200	79998	-59837
1217	902	200	200	80017	-59837
1218	902	200	200	80017	-59827
1219	902	200	200	80017	-59827
1220	902	200	200	80037	-59827
1221	900	200	200	80037	-59816
1222	903	200	200	80037	-59816
1223	901	200	200	80057	-59816
1224	902	200	200	80057	-59805
1225	901	200	200	80057	-59805
1226	902	200	200	80075	-59805
1227	902	200	200	80075	-59794
1228	902	200	200	80075	-59794
1229	902	200	200	80097	-59794
1230	902	200	200	80097	-59783
1231	902	200	200	80097	-59783
1232	902	200	200	80117	-59783
1233	902	200	200	80117	-59770
1234	902	200	200	80117	-59770
1235	901	200	200	80141	-59770
1236	902	200	200	80141	-59758
1237	901	200	200	80141	-59758
1238	902	200	200	80162	-59758
1239	900	200	200	80162	-59746
1240	901	200	200	80162	-59746
1241	901	200	200	80183	-59746
1242	901	200	200	80183	-59734
1243	902	200	200	80183	-59734
1244	902	200	200	80201	-59734
1245	902	200	200	80201	-59720
1246	901	200	200	80201	-59720
1247	901	200	200	80222	-59720
1248	902	200	200	80222	-59707
1249	901	200	200	80222	-59707
1250	901	200	200	80243	-59707
1251	902	200	200	80243	-59693
1252	902	200	200	80243	-59693
1253	902	200	200	80263	-59693
1254	901	200	200	80263	-59680
1255	903	200	200	80263	-59680
1256	902	200	200	80283	-59680
1257	902	200	200	80283	-59667
1258	901	200	200	80283	-59667
1259	902	200	200	80302	-59667
1260	900	200	200	80302	-59654
1261	902	200	200	80302	-59654
1262	902	200	200	80318	-59654
1263	902	200	200	80318	-59641
1264	902	200	200	80318	-59641
1265	902	200	200	80335	-59641
1266	902	200	200	80335	-59630
1267	901	200	200	80335	-59630
1268	902	200	200	80352	-59630
1269	902	200	200	80352	-59630
1270	902	200	200	80352	-59618
1271	900	200	200	80370	-59618
1272	901	200	200	80370	-59618
1273	902	200	200	80370	-59606
1274	902	200	200	80388	-59606
1275	903	200	200	80388	-59606
1276	902	200	200	80388	-59594
1277	901	200	200	80409	-59594
1278	901	200	200	80409	-59594
1279	902	200	200	80409	-59583
1280	902	200	200	80429	-59583
1281	902	200	200	80429	-59583
1282	902	200	200	80429	-59573
1283	902	200	200	80448	-59573
1284	900	200	200	80448	-59573
1285	901	200	200	80448	-59563
1286	900	200	200	80467	-59563
1287	902	200	200	80467	-59563
1288	902	200	200	80467	-59554
1289	903	200	200	80487	-59554
1290	901	200	200	80487	-59554
1291	900	200	200	80487	-59546
1292	902	200	200	80506	-59546
1293	901	200	200	80506	-59546
1294	902	200	200	80506	-59538
1295	902	200	200	80528	-59538
1296	902	200	200	80528	-59538
1297	901	200	200	80528	-59530
1298	902	200	200	80549	-59530
1299	901	200	200	80549	-59530
1300	902	200	200	80549	-59523
1301	902	200	200	80569	-59523
1302	902	200	200	80569	-59523
1303	902	200	200	80569	-59518
1304	902	200	200	80588	-59518
1305	902	200	200	80588	-59518
1306	902	200	200	80588	-59513
1307	899	200	200	80607	-59513
1308	902	200	200	80607	-59513
1309	902	200	200	80607	-59507
1310	902	200	200	80623	-59507
1311	902	200	200	80623	-59507
1312	902	200	200	80623	-59501
1313	902	200	200	80638	-59501
1314	902	200	200	80638	-59501
1315	902	200	200	80638	-59494
1316	902	200	200	80655	-59494
1317	900	200	200	80655	-59494
1318	901	200	200	80655	-59487
1319	902	200	200	80671	-59487
1320	902	200	200	80671	-59487
1321	902	200	200	80671	-59479
1322	902	200	200	80689	-59479
1323	902	200	200	80689	-59479
1324	901	200	200	80689	-59471
1325	902	200	200	80706	-59471
1326	901	200	200	80706	-59471
1327	902	200	200	80706	-59463
1328	903	200	200	80726	-59463
1329	902	200	200	80726	-59463
1330	902	200	200	80726	-59453
1331	900	200	200	80744	-59453
1332	901	200	200	80744	-59453
1333	900	200	200	80744	-59444
1334	902	200	200	80744	-59444
1335	902	200	200	80764	-59444
1336	902	200	200	80764	-59434
1337	901	200	200	80764	-59434
1338	903	200	200	80786	-59434
1339	901	200	200	80786	-59424
1340	901	200	200	80786	-59424
1341	902	200	200	80808	-59424
1342	902	200	200	80808	-59413
1343	901	200	200	80808	-59413
1344	902	200	200	80828	-59413
1345	901	200	200	80828	-59403
1346	902	200	200	80828	-59403
1347	902	200	200	80850	-59403
1348	903	200	200	80850	-59393
1349	901	200	200	80850	-59393
1350	902	200	200	80871	-59393
1351	902	200	200	80871	-59382
1352	901	200	200	80871	-59382
1353	902	200	200	80891	-59382
1354	902	200	200	80891	-59370
1355	902	200	200	80891	-59370
1356	901	200	200	80913	-59370
1357	902	200	200	80913	-59358
1358	902	200	200	80913	-59358
1359	901	200	200	80936	-59358
1360	902	200	200	80936	-59347
1361	901	200	200	80936	-59347
1362	902	200	200	80956	-59347
1363	900	200	200	80956	-59335
1364	901	200	200	80956	-59335
1365	902	200	200	80976	-59335
1366	902	200	200	80976	-59322
1367	903	200	200	80976	-59322
1368	902	200	200	80996	-59322
1369	902	200	200	80996	-59310
1370	902	200	200	80996	-59310
1371	901	200	200	81014	-59310
1372	902	200	200	81014	-59297
1373	901	200	200	81014	-59297
1374	902	200	200	81033	-59297
1375	900	200	200	81033	-59285
1376	901	200	200	81033	-59285
1377	901	200	200	81054	-59285
1378	901	200	200	81054	-59275
1379	902	200	200	81054	-59275
1380	901	200	200	81074	-59275
1381	902	200	200	81074	-59265
1382	901	200	200	81074	-59265
1383	902	200	200	81095	-59265
1384	902	200	200	81095	-59265
1385	902	200	200	81095	-59254
1386	902	200	200	81117	-59254
1387	901	200	200	81117	-59254
1388	902	200	200	81117	-59243
1389	902	200	200	81139	-59243
1390	902	200	200	81139	-59243
1391	902	200	200	81139	-59232
1392	902	200	200	81161	-59232
1393	902	200	200	81161	-59232
1394	901	200	200	81161	-59223
1395	902	200	200	81183	-59223
1396	900	200	200	81183	-59223
1397	902	200	200	81183	-59214
1398	901	200	200	81204	-59214
1399	901	200	200	81204	-59214
1400	902	200	200	81204	-59206
1401	901	200	200	81224	-59206
1402	901	200	200	81224	-59206
1403	901	200	200	81224	-59197
1404	902	200	200	81245	-59197
1405	902	200	200	81245	-59197
1406	902	200	200	81245	-59188
1407	902	200	200	81265	-59188
1408	902	200	200	81265	-59188
1409	902	200	200	81265	-59181
1410	903	200	200	81284	-59181
1411	902	200	200	81284	-59181
1412	902	200	200	81284	-59173
1413	902	200	200	81303	-59173
1414	901	200	200	81303	-59173
1415	902	200	200	81303	-59166
1416	902	200	200	81321	-59166
1417	902	200	200	81321	-59166
1418	900	200	200	81321	-59160
1419	901	200	200	81337	-59160
1420	901	200	200	81337	-59160
1421	900	200	200	81337	-59155
1422	902	200	200	81352	-59155
1423	901	200	200	81352	-59155
1424	903	200	200	81352	-59149
1425	901	200	200	81367	-59149
1426	902	200	200	81367	-59149
1427	901	200	200	81367	-59142
1428	902	200	200	81384	-59142
1429	903	200	200	81384	-59142
1430	902	200	200	81384	-59136
1431	902	200	200	81401	-59136
1432	900	200	200	81401	-59136
1433	902	200	200	81401	-59129
1434	902	200	200	81419	-59129
1435	902	200	200	81419	-59129
1436	902	200	200	81419	-59121
1437	902	200	200	81438	-59121
1438	900	200	200	81438	-59121
1439	901	200	200	81438	-59112
1440	902	200	200	81458	-59112
1441	903	200	200	81458	-59112
1442	902	200	200	81458	-59105
1443	902	200	200	81478	-59105
1444	900	200	200	81478	-59105
1445	901	200	200	81478	-59098
1446	902	200	200	81498	-59098
1447	902	200	200	81498	-59098
1448	903	200	200	81498	-59091
1449	902	200	200	81519	-59091
1450	901	200	200	81519	-59091
1451	899	200	200	81519	-59083
1452	902	200	200	81519	-59083
1453	902	200	200	81537	-59083
1454	902	200	200	81537	-59076
1455	902	200	200	81537	-59076
1456	902	200	200	81556	-59076
1457	902	200	200	81556	-59068
1458	900	200	200	81556	-59068
1459	901	200	200	81575	-59068
1460	901	200	200	81575	-59060
1461	902	200	200	81575	-59060
1462	902	200	200	81594	-59060
1463	902	200	200	81594	-59053
1464	900	200	200	81594	-59053
1465	902	200	200	81613	-59053
1466	901	200	200	81613	-59047
1467	902	200	200	81613	-59047
1468	902	200	200	81633	-59047
1469	902	200	200	81633	-59041
1470	902	200	200	81633	-59041
1471	902	200	200	81652	-59041
1472	902	200	200	81652	-59033
1473	900	200	200	81652	-59033
1474	905	200	200	81668	-59033
1475	906	200	200	81668	-59026
1476	906	200	200	81668	-59026
1477	905	200	200	81684	-59026
1478	905	200	200	81684	-59018
1479	905	200	200	81684	-59018
1480	905	200	200	81701	-59018
1481	906	200	200	81701	-59011
1482	906	200	200	81701	-59011
1483	903	200	200	81716	-59011
1484	904	200	200	81716	-59003
1485	906	200	200	81716	-59003
1486	906	200	200	81733	-59003
1487	906	200	200	81733	-58994
1488	906	200	200	81733	-58994
1489	905	200	200	81751	-58994
1490	904	200	200	81751	-58986
1491	906	200	200	81751	-58986
1492	906	200	200	81772	-58986
1493	906	200	200	81772	-58977
1494	906	200	200	81772	-58977
1495	904	200	200	81791	-58977
1496	904	200	200	81791	-58969
1497	907	200	200	81791	-58969
1498	906	200	200	81812	-58969
1499	906	200	200	81812	-58969
1500	906	200	200	81812	-58960
1501	904	200	200	81833	-58960
1502	904	200	200	81833	-58960
1503	906	200	200	81833	-58952
1504	905	200	200	81852	-58952
1505	906	200	200	81852	-58952
1506	906	200	200	81852	-58943
1507	905	200	200	81871	-58943
1508	903	200	200	81871	-58943
1509	906	200	200	81871	-58935
1510	906	200	200	81892	-58935
1511	906	200	200	81892	-58935
1512	906	200	200	81892	-58927
1513	906	200	200	81912	-58927
1514	907	200	200	81912	-58927
1515	906	200	200	81912	-58920
1516	905	200	200	81933	-58920
1517	906	200	200	81933	-58920
1518	906	200	200	81933	-58914
1519	906	200	200	81953	-58914
1520	906	200	200	81953	-58914
1521	906	200	200	81953	-58907
1522	906	200	200	81972	-58907
1523	905	200	200	81972	-58907
1524	906	200	200	81972	-58900
1525	906	200	200	81991	-58900
1526	906	200	200	81991	-58900
1527	904	200	200	81991	-58894
1528	905	200	200	82010	-58894
1529	905	200	200	82010	-58894
1530	904	200	200	82010	-58889
1531	906	200	200	82027	-58889
1532	905	200	200	82027	-58889
1533	906	200	200	82027	-58884
1534	906	200	200	82040	-58884
1535	906	200	200	82040	-58884
1536	907	200	200	82040	-58882
1537	905	200	200	82053	-58882
1538	906	200	200	82053	-58882
1539	905	200	200	82053	-58879
1540	905	200	200	82068	-58879
1541	905	200	200	82068	-58879
1542	905	200	200	82068	-58877
1543	906	200	200	82083	-58877
1544	906	200	200	82083	-58877
1545	906	200	200	82083	-58874
1546	906	200	200	82097	-58874
1547	906	200	200	82097	-58874
1548	906	200	200	82097	-58872
1549	905	200	200	82113	-58872
1550	906	200	200	82113	-58872
1551	905	200	200	82113	-58868
1552	906	200	200	82129	-58868
1553	905	200	200	82129	-58868
1554	904	200	200	82129	-58865
1555	906	200	200	82146	-58865
1556	905	200	200	82146	-58865
1557	906	200	200	82146	-58862
1558	906	200	200	82165	-58862
1559	907	200	200	82165	-58862
1560	906	200	200	82165	-58859
1561	905	200	200	82184	-58859
1562	906	200	200	82184	-58859
1563	906	200	200	82184	-58856
1564	906	200	200	82202	-58856
1565	905	200	200	82202	-58856
1566	906	200	200	82202	-58854
1567	906	200	200	82220	-58854
1568	905	200	200	82220	-58854
1569	906	200	200	82220	-58851
1570	905	200	200	82220	-58851
1571	906	200	200	82236	-58851
1572	904	200	200	82236	-58849
1573	905	200	200	82236	-58849
1574	904	200	200	82252	-58849
1575	905	200	200	82252	-58846
1576	906	200	200	82252	-58846
1577	905	200	200	82268	-58846
1578	906	200	200	82268	-58844
1579	905	200	200	82268	-58844
1580	906	200	200	82285	-58844
1581	906	200	200	82285	-58842
1582	905	200	200	82285	-58842
1583	906	200	200	82300	-58842
1584	906	200	200	82300	-58840
1585	906	200	200	82300	-58840
1586	905	200	200	82316	-58840
1587	905	200	200	82316	-58838
1588	906	200	200	82316	-58838
1589	904	200	200	82331	-58838
1590	906	200	200	82331	-58837
1591	906	200	200	82331	-58837
1592	906	200	200	82345	-58837
1593	906	200	200	82345	-58835
1594	905	200	200	82345	-58835
1595	906	200	200	82356	-58835
1596	906	200	200	82356	-58834
1597	906	200	200	82356	-58834
1598	905	200	200	82364	-58834
1599	906	200	200	82364	-58833
1600	906	200	200	82364	-58833
1601	906	200	200	82374	-58833
1602	906	200	200	82374	-58831
1603	906	200	200	82374	-58831
1604	903	200	200	82384	-58831
1605	905	200	200	82384	-58830
1606	906	200	200	82384	-58830
1607	906	200	200	82397	-58830
1608	906	200	200	82397	-58829
1609	906	200	200	82397	-58829
1610	906	200	200	82410	-58829
1611	904	200	200	82410	-58828
1612	906	200	200	82410	-58828
1613	906	200	200	82423	-58828
1614	906	200	200	82423	-58827
1615	907	200	200	82423	-58827
1616	906	200	200	82438	-58827
1617	906	200	200	82438	-58825
1618	905	200	200	82438	-58825
1619	905	200	200	82455	-58825
1620	903	200	200	82455	-58823
1621	905	200	200	82455	-58823
1622	906	200	200	82472	-58823
1623	906	200	200	82472	-58823
1624	906	200	200	82472	-58820
1625	906	200	200	82488	-58820
1626	906	200	200	82488	-58820
1627	907	200	200	82488	-58817
1628	906	200	200	82502	-58817
1629	906	200	200	82502	-58817
1630	906	200	200	82502	-58813
1631	906	200	200	82518	-58813
1632	906	200	200	82518	-58813
1633	906	200	200	82518	-58809
1634	904	200	200	82532	-58809
1635	906	200	200	82532	-58809
1636	907	200	200	82532	-58805
1637	906	200	200	82544	-58805
1638	904	200	200	82544	-58805
1639	905	200	200	82544	-58801
1640	905	200	200	82558	-58801
1641	906	200	200	82558	-58801
1642	906	200	200	82558	-58796
1643	906	200	200	82575	-58796
1644	903	200	200	82575	-58796
1645	905	200	200	82575	-58792
1646	905	200	200	82590	-58792
1647	906	200	200	82590	-58792
1648	906	200	200	82590	-58787
1649	906	200	200	82605	-58787
1650	903	200	200	82605	-58787
1651	904	200	200	82605	-58781
1652	905	200	200	82619	-58781
1653	905	200	200	82619	-58781
1654	906	200	200	82619	-58775
1655	906	200	200	82633	-58775
1656	905	200	200	82633	-58775
1657	905	200	200	82633	-58770
1658	906	200	200	82647	-58770
1659	905	200	200	82647	-58770
1660	905	200	200	82647	-58765
1661	906	200	200	82659	-58765
1662	906	200	200	82659	-58765
1663	906	200	200	82659	-58760
1664	905	200	200	82670	-58760
1665	905	200	200	82670	-58760
1666	903	200	200	82670	-58754
1667	906	200	200	82681	-58754
1668	906	200	200	82681	-58754
1669	906	200	200	82681	-58747
1670	904	200	200	82691	-58747
1671	906	200	200	82691	-58747
1672	904	200	200	82691	-58739
1673	906	200	200	82703	-58739
1674	906	200	200	82703	-58739
1675	906	200	200	82703	-58730
1676	905	200	200	82711	-58730
1677	907	200	200	82711	-58730
1678	905	200	200	82711	-58723
1679	906	200	200	82718	-58723
1680	905	200	200	82718	-58723
1681	905	200	200	82718	-58715
1682	906	200	200	82729	-58715
1683	905	200	200	82729	-58715
1684	907	200	200	82729	-58708
1685	905	200	200	82742	-58708
1686	906	200	200	82742	-58708
1687	904	200	200	82742	-58701
1688	905	200	200	82742	-58701
1689	904	200	200	82757	-58701
1690	905	200	200	82757	-58695
1691	905	200	200	82757	-58695
1692	906	200	200	82773	-58695
1693	906	200	200	82773	-58687
1694	905	200	200	82773	-58687
1695	906	200	200	82789	-58687
1696	906	200	200	82789	-58679
1697	905	200	200	82789	-58679
1698	906	200	200	82805	-58679
1699	906	200	200	82805	-58670
1700	906	200	200	82805	-58670
1701	905	200	200	82822	-58670
1702	904	200	200	82822	-58662
1703	906	200	200	82822	-58662
1704	905	200	200	82841	-58662
1705	906	200	200	82841	-58653
1706	903	200	200	82841	-58653
1707	905	200	200	82860	-58653
1708	905	200	200	82860	-58645
1709	905	200	200	82860	-58645
1710	906	200	200	82878	-58645
1711	906	200	200	82878	-58637
1712	906	200	200	82878	-58637
1713	906	200	200	82895	-58637
1714	906	200	200	82895	-58629
1715	904	200	200	82895	-58629
1716	905	200	200	82913	-58629
1717	905	200	200	82913	-58621
1718	904	200	200	82913	-58621
1719	907	200	200	82929	-58621
1720	907	200	200	82929	-58612
1721	906	200	200	82929	-58612
1722	906	200	200	82946	-58612
1723	906	200	200	82946	-58603
1724	906	200	200	82946	-58603
1725	904	200	200	82965	-58603
1726	905	200	200	82965	-58594
1727	906	200	200	82965	-58594
1728	905	200	200	82983	-58594
1729	906	200	200	82983	-58588
1730	905	200	200	82983	-58588
1731	906	200	200	83000	-58588
1732	905	200	200	83000	-58581
1733	906	200	200	83000	-58581
1734	906	200	200	83014	-58581
1735	905	200	200	83014	-58574
1736	906	200	200	83014	-58574
1737	906	200	200	83027	-58574
1738	906	200	200	83027	-58566
1739	906	200	200	83027	-58566
1740	906	200	200	83041	-58566
1741	905	200	200	83041	-58558
1742	905	200	200	83041	-58558
1743	906	200	200	83053	-58558
1744	905	200	200	83053	-58558
1745	906	200	200	83053	-58551
1746	906	200	200	83066	-58551
1747	906	200	200	83066	-58551
1748	905	200	200	83066	-58544
1749	906	200	200	83080	-58544
1750	906	200	200	83080	-58544
1751	905	200	200	83080	-58537
1752	906	200	200	83096	-58537
1753	906	200	200	83096	-58537
1754	906	200	200	83096	-58532
1755	906	200	200	83113	-58532
1756	906	200	200	83113	-58532
1757	906	200	200	83113	-58527
1758	906	200	200	83129	-58527
1759	906	200	200	83129	-58527
1760	905	200	200	83129	-58522
1761	906	200	200	83147	-58522
1762	905	200	200	83147	-58522
1763	906	200	200	83147	-58518
1764	907	200	200	83165	-58518
1765	906	200	200	83165	-58518
1766	904	200	200	83165	-58514
1767	906	200	200	83182	-58514
1768	906	200	200	83182	-58514
1769	906	200	200	83182	-58510
1770	907	200	200	83199	-58510
1771	906	200	200	83199	-58510
1772	905	200	200	83199	-58506
1773	906	200	200	83217	-58506
1774	904	200	200	83217	-58506
1775	906	200	200	83217	-58501
1776	906	200	200	83234	-58501
1777	906	200	200	83234	-58501
1778	905	200	200	83234	-58497
1779	906	200	200	83250	-58497
1780	906	200	200	83250	-58497
1781	906	200	200	83250	-58493
1782	906	200	200	83266	-58493
1783	906	200	200	83266	-58493
1784	906	200	200	83266	-58490
1785	906	200	200	83282	-58490
1786	903	200	200	83282	-58490
1787	906	200	200	83282	-58486
1788	906	200	200	83299	-58486
1789	906	200	200	83299	-58486
1790	906	200	200	83299	-58483
1791	906	200	200	83314	-58483
1792	904	200	200	83314	-58483
1793	907	200	200	83314	-58479
1794	906	200	200	83328	-58479
1795	906	200	200	83328	-58479
1796	906	200	200	83328	-58476
1797	906	200	200	83343	-58476
1798	904	200	200	83343	-58476
1799	907	200	200	83343	-58471
1800	906	200	200	83343	-58471
1801	906	200	200	83357	-58471
1802	906	200	200	83357	-58467
1803	906	200	200	83357	-58467
1804	904	200	200	83369	-58467
1805	906	200	200	83369	-58462
1806	906	200	200	83369	-58462
1807	906	200	200	83381	-58462
1808	906	200	200	83381	-58457
1809	906	200	200	83381	-58457
1810	904	200	200	83392	-58457
1811	906	200	200	83392	-58451
1812	906	200	200	83392	-58451
1813	906	200	200	83403	-58451
1814	906	200	200	83403	-58445
1815	906	200	200	83403	-58445
1816	904	200	200	83414	-58445
1817	906	200	200	83414	-58439
1818	906	200	200	83414	-58439
1819	905	200	200	83428	-58439
1820	906	200	200	83428	-58432
1821	906	200	200	83428	-58432
1822	904	200	200	83442	-58432
1823	906	200	200	83442	-58425
1824	906	200	200	83442	-58425
1825	906	200	200	83457	-58425
1826	906	200	200	83457	-58418
1827	906	200	200	83457	-58418
1828	907	200	200	83472	-58418
1829	905	200	200	83472	-58413
1830	906	200	200	83472	-58413
1831	906	200	200	83488	-58413
1832	906	200	200	83488	-58407
1833	906	200	200	83488	-58407
1834	906	200	200	83504	-58407
1835	905	200	200	83504	-58400
1836	906	200	200	83504	-58400
1837	906	200	200	83520	-58400
1838	906	200	200	83520	-58392
1839	906	200	200	83520	-58392
1840	905	200	200	83537	-58392
1841	906	200	200	83537	-58384
1842	906	200	200	83537	-58384
1843	906	200	200	83555	-58384
1844	905	200	200	83555	-58377
1845	906	200	200	83555	-58377
1846	904	200	200	83572	-58377
1847	906	200	200	83572	-58368
1848	905	200	200	83572	-58368
1849	906	200	200	83589	-58368
1850	905	200	200	83589	-58360
1851	906	200	200	83589	-58360
1852	906	200	200	83606	-58360
1853	905	200	200	83606	-58353
1854	907	200	200	83606	-58353
1855	906	200	200	83622	-58353
1856	906	200	200	83622	-58345
1857	905	200	200	83622	-58345
1858	906	200	200	83637	-58345
1859	906	200	200	83637	-58336
1860	905	200	200	83637	-58336
1861	906	200	200	83653	-58336
1862	906	200	200	83653	-58336
1863	906	200	200	83653	-58328
1864	905	200	200	83669	-58328
1865	906	200	200	83669	-58328
1866	905	200	200	83669	-58316
1867	906	200	200	83685	-58316
1868	906	200	200	83685	-58316
1869	905	200	200	83685	-58307
1870	906	200	200	83699	-58307
1871	906	200	200	83699	-58307
1872	906	200	200	83699	-58297
1873	904	200	200	83710	-58297
1874	905	200	200	83710	-58297
1875	906	200	200	83710	-58286
1876	904	200	200	83721	-58286
1877	906	200	200	83721	-58286
1878	906	200	200	83721	-58276
1879	906	200	200	83734	-58276
1880	905	200	200	83734	-58276
1881	906	200	200	83734	-58266
1882	904	200	200	83747	-58266
1883	905	200	200	83747	-58266
1884	905	200	200	83747	-58258
1885	904	200	200	83759	-58258
1886	906	200	200	83759	-58258
1887	904	200	200	83759	-58249
1888	906	200	200	83773	-58249
1889	905	200	200	83773	-58249
1890	907	200	200	83773	-58241
1891	904	200	200	83786	-58241
1892	905	200	200	83786	-58241
1893	905	200	200	83786	-58234
1894	905	200	200	83803	-58234
1895	906	200	200	83803	-58234
1896	904	200	200	83803	-58227
1897	907	200	200	83820	-58227
1898	905	200	200	83820	-58227
1899	906	200	200	83820	-58219
1900	905	200	200	83836	-58219
1901	905	200	200	83836	-58219
1902	905	200	200	83836	-58212
1903	906	200	200	83854	-58212
1904	906	200	200	83854	-58212
1905	906	200	200	83854	-58205
1906	906	200	200	83872	-58205
1907	906	200	200	83872	-58205
1908	905	200	200	83872	-58199
1909	906	200	200	83888	-58199
1910	905	200	200	83888	-58199
1911	907	200	200	83888	-58193
1912	906	200	200	83904	-58193
1913	906	200	200	83904	-58193
1914	905	200	200	83904	-58187
1915	906	200	200	83921	-58187
1916	905	200	200	83921	-58187
1917	905	200	200	83921	-58183
1918	906	200	200	83938	-58183
1919	906	200	200	83938	-58183
1920	905	200	200	83938	-58180
1921	906	200	200	83938	-58180
1922	906	200	200	83955	-58180
1923	906	200	200	83955	-58177
1924	904	200	200	83955	-58177
1925	906	200	200	83972	-58177
1926	905	200	200	83972	-58174
1927	907	200	200	83972	-58174
1928	906	200	200	83989	-58174
1929	906	200	200	83989	-58171
1930	906	200	200	83989	-58171
1931	906	200	200	84005	-58171
1932	904	200	200	84005	-58169
1933	903	200	200	84005	-58169
1934	905	200	200	84020	-58169
1935	906	200	200	84020	-58166
1936	906	200	200	84020	-58166
1937	904	200	200	84035	-58166
1938	905	200	200	84035	-58163
1939	904	200	200	84035	-58163
1940	906	200	200	84050	-58163
1941	906	200	200	84050	-58159
1942	905	200	200	84050	-58159
1943	903	200	200	84062	-58159
1944	906	200	200	84062	-58156
1945	906	200	200	84062	-58156
1946	906	200	200	84074	-58156
1947	906	200	200	84074	-58153
1948	904	200	200	84074	-58153
1949	905	200	200	84084	-58153
1950	906	200	200	84084	-58150
1951	905	200	200	84084	-58150
1952	906	200	200	84095	-58150
1953	906	200	200	84095	-58147
1954	905	200	200	84095	-58147
1955	904	200	200	84106	-58147
1956	906	200	200	84106	-58145
1957	905	200	200	84106	-58145
1958	906	200	200	84118	-58145
1959	906	200	200	84118	-58144
1960	906	200	200	84118	-58144
1961	905	200	200	84131	-58144
1962	904	200	200	84131	-58143
1963	904	200	200	84131	-58143
1964	904	200	200	84143	-58143
1965	905	200	200	84143	-58141
1966	906	200	200	84143	-58141
1967	906	200	200	84156	-58141
1968	904	200	200	84156	-58140
1969	904	200	200	84156	-58140
1970	905	200	200	84169	-58140
1971	906	200	200	84169	-58138
1972	906	200	200	84169	-58138
1973	906	200	200	84184	-58138
1974	904	200	200	84184	-58136
1975	904	200	200	84184	-58136
1976	905	200	200	84200	-58136
1977	906	200	200	84200	-58134
1978	906	200	200	84200	-58134
1979	906	200	200	84216	-58134
1980	904	200	200	84216	-58134
1981	903	200	200	84216	-58132
1982	904	200	200	84233	-58132
1983	906	200	200	84233	-58132
1984	906	200	200	84233	-58129
1985	905	200	200	84250	-58129
1986	905	200	200	84250	-58129
1987	904	200	200	84250	-58126
1988	904	200	200	84267	-58126
1989	905	200	200	84267	-58126
1990	906	200	200	84267	-58123
1991	906	200	200	84281	-58123
1992	905	200	200	84281	-58123
1993	904	200	200	84281	-58120
1994	905	200	200	84294	-58120
1995	906	200	200	84294	-58120
1996	906	200	200	84294	-58117
1997	906	200	200	84309	-58117
1998	904	200	200	84309	-58117
1999	906	200	200	84309	-58113
2000	905	200	200	84324	-58113
2001	906	200	200	84324	-58113
2002	906	200	200	84324	-58109
2003	906	200	200	84339	-58109
2004	905	200	200	84339	-58109
2005	906	200	200	84339	-58105
2006	904	200	200	84353	-58105
2007	906	200	200	84353	-58105
2008	906	200	200	84353	-58100
2009	906	200	200	84368	-58100
2010	905	200	200	84368	-58100
2011	905	200	200	84368	-58095
2012	905	200	200	84382	-58095
2013	906	200	200	84382	-58095
2014	906	200	200	84382	-58091
2015	906	200	200	84395	-58091
2016	907	200	200	84395	-58091
2017	906	200	200	84395	-58087
2018	906	200	200	84404	-58087
2019	905	200	200	84404	-58087
2020	906	200	200	84404	-58083
2021	906	200	200	84413	-58083
2022	905	200	200	84413	-58083
2023	906	200	200	84413	-58079
2024	905	200	200	84422	-58079
2025	906	200	200	84422	-58079
2026	905	200	200	84422	-58075
2027	905	200	200	84432	-58075
2028	906	200	200	84432	-58075
2029	905	200	200	84432	-58071
2030	907	200	200	84443	-58071
2031	905	200	200	84443	-58071
2032	906	200	200	84443	-58068
2033	903	200	200	84454	-58068
2034	905	200	200	84454	-58068
2035	905	200	200	84454	-58064
2036	905	200	200	84464	-58064
2037	905	200	200	84464	-58064
2038	906	200	200	84464	-58060
2039	905	200	200	84475	-58060
2040	906	200	200	84475	-58060
2041	905	200	200	84475	-58056
2042	906	200	200	84475	-58056
2043	905	200	200	84488	-58056
2044	906	200	200	84488	-58052
2045	904	200	200	84488	-58052
2046	905	200	200	84501	-58052
2047	905	200	200	84501	-58047
2048	905	200	200	84501	-58047
2049	906	200	200	84514	-58047
2050	906	200	200	84514	-58042
2051	906	200	200	84514	-58042
2052	906	200	200	84527	-58042
2053	905	200	200	84527	-58036
2054	906	200	200	84527	-58036
2055	906	200	200	84540	-58036
2056	905	200	200	84540	-58030
2057	907	200	200	84540	-58030
2058	910	200	200	84552	-58030
2059	909	200	200	84552	-58024
2060	910	200	200	84552	-58024
2061	910	200	200	84565	-58024
2062	909	200	200	84565	-58019
2063	909	200	200	84565	-58019
2064	910	200	200	84577	-58019
2065	910	200	200	84577	-58013
2066	909	200	200	84577	-58013
2067	910	200	200	84588	-58013
2068	909	200	200	84588	-58008
2069	910	200	200	84588	-58008
2070	910	200	200	84599	-58008
2071	909	200	200	84599	-58003
2072	910	200	200	84599	-58003
2073	910	200	200	84611	-58003
2074	910	200	200	84611	-57999
2075	910	200	200	84611	-57999
2076	910	200	200	84625	-57999
2077	909	200	200	84625	-57995
2078	910	200	200	84625	-57995
2079	910	200	200	84637	-57995
2080	908	200	200	84637	-57990
2081	910	200	200	84637	-57990
2082	910	200	200	84650	-57990
2083	910	200	200	84650	-57984
2084	910	200	200	84650	-57984
2085	910	200	200	84661	-57984
2086	909	200	200	84661	-57978
2087	910	200	200	84661	-57978
2088	910	200	200	84672	-57978
2089	909	200	200	84672	-57973
2090	910	200	200	84672	-57973
2091	909	200	200	84683	-57973
2092	910	200	200	84683	-57968
2093	909	200	200	84683	-57968
2094	908	200	200	84693	-57968
2095	910	200	200	84693	-57963
2096	908	200	200	84693	-57963
2097	911	200	200	84703	-57963
2098	909	200	200	84703	-57963
2099	910	200	200	84703	-57958
2100	910	200	200	84712	-57958
2101	910	200	200	84712	-57958
2102	907	200	200	84712	-57953
2103	909	200	200	84721	-57953
2104	909	200	200	84721	-57953
2105	910	200	200	84721	-57947
2106	910	200	200	84729	-57947
2107	910	200	200	84729	-57947
2108	908	200	200	84729	-57941
2109	909	200	200	84737	-57941
2110	909	200	200	84737	-57941
2111	910	200	200	84737	-57934
2112	910	200	200	84744	-57934
2113	910	200	200	84744	-57934
2114	910	200	200	84744	-57928
2115	910	200	200	84750	-57928
2116	908	200	200	84750	-57928
2117	910	200	200	84750	-57922
2118	910	200	200	84754	-57922
2119	910	200	200	84754	-57922
2120	908	200	200	84754	-57917
2121	909	200	200	84758	-57917
2122	909	200	200	84758	-57917
2123	910	200	200	84758	-57911
2124	910	200	200	84762	-57911
2125	910	200	200	84762	-57911
2126	908	200	200	84762	-57905
2127	908	200	200	84767	-57905
2128	909	200	200	84767	-57905
2129	909	200	200	84767	-57899
2130	910	200	200	84775	-57899
2131	910	200	200	84775	-57899
2132	908	200	200	84775	-57894
2133	909	200	200	84785	-57894
2134	909	200	200	84785	-57894
2135	910	200	200	84785	-57889
2136	910	200	200	84796	-57889
2137	910	200	200	84796	-57889
2138	907	200	200	84796	-57886
2139	907	200	200	84807	-57886
2140	909	200	200	84807	-57886
2141	910	200	200	84807	-57882
2142	910	200	200	84819	-57882
2143	910	200	200	84819	-57882
2144	910	200	200	84819	-57878
2145	907	200	200	84833	-57878
2146	909	200	200	84833	-57878
2147	909	200	200	84833	-57874
2148	910	200	200	84847	-57874
2149	910	200	200	84847	-57874
2150	910	200	200	84847	-57869
2151	908	200	200	84862	-57869
2152	909	200	200	84862	-57869
2153	909	200	200	84862	-57865
2154	910	200	200	84879	-57865
2155	911	200	200	84879	-57865
2156	910	200	200	84879	-57861
2157	908	200	200	84896	-57861
2158	909	200	200	84896	-57861
2159	909	200	200	84896	-57856
2160	910	200	200	84896	-57856
2161	911	200	200	84914	-57856
2162	910	200	200	84914	-57852
2163	908	200	200	84914	-57852
2164	908	200	200	84928	-57852
2165	909	200	200	84928	-57848
2166	910	200	200	84928	-57848
2167	910	200	200	84942	-57848
2168	910	200	200	84942	-57845
2169	909	200	200	84942	-57845
2170	909	200	200	84957	-57845
2171	908	200	200	84957	-57842
2172	910	200	200	84957	-57842
2173	910	200	200	84971	-57842
2174	910	200	200	84971	-57840
2175	908	200	200	84971	-57840
2176	909	200	200	84984	-57840
2177	909	200	200	84984	-57838
2178	909	200	200	84984	-57838
2179	910	200	200	84998	-57838
2180	910	200	200	84998	-57836
2181	909	200	200	84998	-57836
2182	909	200	200	85012	-57836
2183	909	200	200	85012	-57835
2184	910	200	200	85012	-57835
2185	910	200	200	85026	-57835
2186	909	200	200	85026	-57834
2187	910	200	200	85026	-57834
2188	910	200	200	85040	-57834
2189	909	200	200	85040	-57833
2190	910	200	200	85040	-57833
2191	910	200	200	85052	-57833
2192	909	200	200	85052	-57833
2193	910	200	200	85052	-57833
2194	910	200	200	85063	-57833
2195	910	200	200	85063	-57832
2196	910	200	200	85063	-57832
2197	910	200	200	85073	-57832
2198	909	200	200	85073	-57831
2199	909	200	200	85073	-57831
2200	910	200	200	85082	-57831
2201	909	200	200	85082	-57830
2202	910	200	200	85082	-57830
2203	909	200	200	85090	-57830
2204	910	200	200	85090	-57829
2205	909	200	200	85090	-57829
2206	908	200	200	85097	-57829
2207	909	200	200	85097	-57829
2208	910	200	200	85097	-57829
2209	909	200	200	85103	-57829
2210	909	200	200	85103	-57828
2211	910	200	200	85103	-57828
2212	909	200	200	85110	-57828
2213	910	200	200	85110	-57827
2214	909	200	200	85110	-57827
2215	909	200	200	85118	-57827
2216	910	200	200	85118	-57827
2217	909	200	200	85118	-57826
2218	909	200	200	85128	-57826
2219	909	200	200	85128	-57826
2220	908	200	200	85128	-57825
2221	909	200	200	85138	-57825
2222	909	200	200	85138	-57825
2223	910	200	200	85138	-57825
2224	908	200	200	85149	-57825
2225	911	200	200	85149	-57825
2226	909	200	200	85149	-57824
2227	911	200	200	85161	-57824
2228	909	200	200	85161	-57824
2229	909	200	200	85161	-57823
2230	910	200	200	85172	-57823
2231	910	200	200	85172	-57823
2232	910	200	200	85172	-57822
2233	909	200	200	85183	-57822
2234	909	200	200	85183	-57822
2235	909	200	200	85183	-57821
2236	908	200	200	85196	-57821
2237	910	200	200	85196	-57821
2238	909	200	200	85196	-57821
2239	910	200	200	85209	-57821
2240	909	200	200	85209	-57821
2241	909	200	200	85209	-57820
2242	909	200	200	85222	-57820
2243	908	200	200	85222	-57820
2244	910	200	200	85222	-57819
2245	910	200	200	85234	-57819
2246	910	200	200	85234	-57819
2247	910	200	200	85234	-57818
2248	909	200	200	85247	-57818
2249	910	200	200	85247	-57818
2250	910	200	200	85247	-57817
2251	909	200	200	85262	-57817
2252	909	200	200	85262	-57817
2253	910	200	200	85262	-57817
2254	910	200	200	85275	-57817
2255	909	200	200	85275	-57817
2256	910	200	200	85275	-57816
2257	909	200	200	85288	-57816
2258	909	200	200	85288	-57816
2259	910	200	200	85288	-57815
2260	910	200	200	85300	-57815
2261	910	200	200	85300	-57815
2262	909	200	200	85300	-57814
2263	909	200	200	85313	-57814
2264	909	200	200	85313	-57814
2265	909	200	200	85313	-57813
2266	910	200	200	85325	-57813
2267	910	200	200	85325	-57813
2268	909	200	200	85325	-57813
2269	909	200	200	85338	-57813
2270	910	200	200	85338	-57813
2271	910	200	200	85338	-57812
2272	910	200	200	85351	-57812
2273	910	200	200	85351	-57812
2274	910	200	200	85351	-57811
2275	907	200	200	85363	-57811
2276	911	200	200	85363	-57811
2277	910	200	200	85363	-57810
2278	910	200	200	85363	-57810
2279	908	200	200	85374	-57810
2280	910	200	200	85374	-57809
2281	910	200	200	85374	-57809
2282	910	200	200	85386	-57809
2283	910	200	200	85386	-57808
2284	910	200	200	85386	-57808
2285	908	200	200	85396	-57808
2286	910	200	200	85396	-57807
2287	910	200	200	85396	-57807
2288	910	200	200	85407	-57807
2289	911	200	200	85407	-57807
2290	910	200	200	85407	-57807
2291	908	200	200	85417	-57807
2292	908	200	200	85417	-57806
2293	910	200	200	85417	-57806
2294	909	200	200	85426	-57806
2295	910	200	200	85426	-57805
2296	910	200	200	85426	-57805
2297	910	200	200	85434	-57805
2298	909	200	200	85434	-57805
2299	909	200	200	85434	-57805
2300	907	200	200	85440	-57805
2301	910	200	200	85440	-57804
2302	910	200	200	85440	-57804
2303	910	200	200	85445	-57804
2304	910	200	200	85445	-57804
2305	909	200	200	85445	-57804
2306	909	200	200	85449	-57804
2307	908	200	200	85449	-57803
2308	910	200	200	85449	-57803
2309	910	200	200	85454	-57803
2310	910	200	200	85454	-57803
2311	910	200	200	85454	-57803
2312	909	200	200	85462	-57803
2313	910	200	200	85462	-57802
2314	909	200	200	85462	-57802
2315	910	200	200	85472	-57802
2316	910	200	200	85472	-57802
2317	910	200	200	85472	-57802
2318	908	200	200	85483	-57802
2319	909	200	200	85483	-57801
2320	910	200	200	85483	-57801
2321	910	200	200	85494	-57801
2322	911	200	200	85494	-57801
2323	910	200	200	85494	-57801
2324	907	200	200	85505	-57801
2325	909	200	200	85505	-57801
2326	909	200	200	85505	-57801
2327	910	200	200	85518	-57801
2328	911	200	200	85518	-57801
2329	911	200	200	85518	-57800
2330	908	200	200	85532	-57800
2331	909	200	200	85532	-57800
2332	910	200	200	85532	-57800
2333	910	200	200	85545	-57800
2334	910	200	200	85545	-57800
2335	910	200	200	85545	-57800
2336	909	200	200	85558	-57800
2337	908	200	200	85558	-57800
2338	909	200	200	85558	-57799
2339	910	200	200	85571	-57799
2340	910	200	200	85571	-57799
2341	910	200	200	85571	-57799
2342	910	200	200	85585	-57799
2343	910	200	200	85585	-57799
2344	908	200	200	85585	-57799
2345	908	200	200	85599	-57799
2346	908	200	200	85599	-57799
2347	909	200	200	85599	-57798
2348	910	200	200	85612	-57798
2349	910	200	200	85612	-57798
2350	909	200	200	85612	-57798
2351	910	200	200	85623	-57798
2352	910	200	200	85623	-57798
2353	907	200	200	85623	-57797
2354	909	200	200	85635	-57797
2355	909	200	200	85635	-57797
2356	908	200	200	85635	-57794
2357	910	200	200	85647	-57794
2358	909	200	200	85647	-57794
2359	910	200	200	85647	-57791
2360	909	200	200	85659	-57791
2361	910	200	200	85659	-57791
2362	910	200	200	85659	-57788
2363	909	200	200	85671	-57788
2364	909	200	200	85671	-57788
2365	910	200	200	85671	-57785
2366	910	200	200	85682	-57785
2367	909	200	200	85682	-57785
2368	910	200	200	85682	-57782
2369	909	200	200	85693	-57782
2370	909	200	200	85693	-57782
2371	910	200	200	85693	-57778
2372	909	200	200	85706	-57778
2373	910	200	200	85706	-57778
2374	909	200	200	85706	-57774
2375	909	200	200	85718	-57774
2376	909	200	200	85718	-57774
2377	910	200	200	85718	-57770
2378	910	200	200	85730	-57770
2379	909	200	200	85730	-57770
2380	910	200	200	85730	-57766
2381	910	200	200	85742	-57766
2382	910	200	200	85742	-57766
2383	907	200	200	85742	-57762
2384	909	200	200	85751	-57762
2385	909	200	200	85751	-57762
2386	909	200	200	85751	-57757
2387	910	200	200	85758	-57757
2388	909	200	200	85758	-57757
2389	910	200	200	85758	-57752
2390	909	200	200	85765	-57752
2391	910	200	200	85765	-57752
2392	910	200	200	85765	-57747
2393	909	200	200	85773	-57747
2394	910	200	200	85773	-57747
2395	910	200	200	85773	-57741
2396	910	200	200	85773	-57741
2397	909	200	200	85780	-57741
2398	909	200	200	85780	-57736
2399	910	200	200	85780	-57736
2400	909	200	200	85787	-57736
2401	910	200	200	85787	-57731
2402	909	200	200	85787	-57731
2403	910	200	200	85793	-57731
2404	908	200	200	85793	-57725
2405	909	200	200	85793	-57725
2406	909	200	200	85798	-57725
2407	908	200	200	85798	-57719
2408	910	200	200	85798	-57719
2409	909	200	200	85803	-57719
2410	910	200	200	85803	-57715
2411	910	200	200	85803	-57715
2412	910	200	200	85810	-57715
2413	910	200	200	85810	-57711
2414	910	200	200	85810	-57711
2415	909	200	200	85818	-57711
2416	910	200	200	85818	-57707
2417	910	200	200	85818	-57707
2418	910	200	200	85826	-57707
2419	910	200	200	85826	-57701
2420	910	200	200	85826	-57701
2421	909	200	200	85835	-57701
2422	910	200	200	85835	-57695
2423	909	200	200	85835	-57695
2424	910	200	200	85845	-57695
2425	909	200	200	85845	-57688
2426	910	200	200	85845	-57688
2427	910	200	200	85856	-57688
2428	910	200	200	85856	-57682
2429	909	200	200	85856	-57682
2430	909	200	200	85869	-57682
2431	910	200	200	85869	-57674
2432	909	200	200	85869	-57674
2433	910	200	200	85881	-57674
2434	910	200	200	85881	-57667
2435	908	200	200	85881	-57667
2436	909	200	200	85895	-57667
2437	908	200	200	85895	-57660
2438	910	200	200	85895	-57660
2439	910	200	200	85909	-57660
2440	910	200	200	85909	-57652
2441	907	200	200	85909	-57652
2442	910	200	200	85923	-57652
2443	909	200	200	85923	-57644
2444	910	200	200	85923	-57644
2445	910	200	200	85936	-57644
2446	910	200	200	85936	-57644
2447	908	200	200	85936	-57636
2448	910	200	200	85949	-57636
2449	909	200	200	85949	-57636
2450	909	200	200	85949	-57629
2451	910	200	200	85963	-57629
2452	910	200	200	85963	-57629
2453	910	200	200	85963	-57622
2454	910	200	200	85975	-57622
2455	909	200	200	85975	-57622
2456	910	200	200	85975	-57614
2457	910	200	200	85989	-57614
2458	910	200	200	85989	-57614
2459	910	200	200	85989	-57608
2460	909	200	200	86003	-57608
2461	910	200	200	86003	-57608
2462	908	200	200	86003	-57601
2463	910	200	200	86016	-57601
2464	910	200	200	86016	-57601
2465	910	200	200	86016	-57594
2466	909	200	200	86030	-57594
2467	909	200	200	86030	-57594
2468	909	200	200	86030	-57588
2469	910	200	200	86043	-57588
2470	911	200	200	86043	-57588
2471	910	200	200	86043	-57582
2472	910	200	200	86055	-57582
2473	910	200	200	86055	-57582
2474	910	200	200	86055	-57576
2475	909	200	200	86067	-57576
2476	910	200	200	86067	-57576
2477	910	200	200	86067	-57569
2478	910	200	200	86078	-57569
2479	908	200	200	86078	-57569
2480	909	200	200	86078	-57562
2481	909	200	200	86089	-57562
2482	910	200	200	86089	-57562
2483	911	200	200	86089	-57556
2484	910	200	200	86098	-57556
2485	907	200	200	86098	-57556
2486	908	200	200	86098	-57550
2487	910	200	200	86108	-57550
2488	910	200	200	86108	-57550
2489	910	200	200	86108	-57545
2490	910	200	200	86116	-57545
2491	910	200	200	86116	-57545
2492	908	200	200	86116	-57541
2493	909	200	200	86123	-57541
2494	909	200	200	86123	-57541
2495	909	200	200	86123	-57537
2496	910	200	200	86129	-57537
2497	910	200	200	86129	-57537
2498	909	200	200	86129	-57534
2499	909	200	200	86135	-57534
2500	907	200	200	86135	-57534
2501	908	200	200	86135	-57530
2502	910	200	200	86141	-57530
2503	910	200	200	86141	-57530
2504	910	200	200	86141	-57526
2505	908	200	200	86148	-57526
2506	908	200	200	86148	-57526
2507	908	200	200	86148	-57522
2508	909	200	200	86155	-57522
2509	910	200	200	86155	-57522
2510	910	200	200	86155	-57517
2511	909	200	200	86165	-57517
2512	910	200	200	86165	-57517
2513	909	200	200	86165	-57513
2514	910	200	200	86175	-57513
2515	910	200	200	86175	-57513
2516	910	200	200	86175	-57509
2517	909	200	200	86175	-57509
2518	908	200	200	86184	-57509
2519	910	200	200	86184	-57506
2520	909	200	200	86184	-57506
2521	911	200	200	86194	-57506
2522	910	200	200	86194	-57503
2523	909	200	200	86194	-57503
2524	910	200	200	86204	-57503
2525	910	200	200	86204	-57500
2526	910	200	200	86204	-57500
2527	910	200	200	86214	-57500
2528	909	200	200	86214	-57498
2529	908	200	200	86214	-57498
2530	908	200	200	86225	-57498
2531	910	200	200	86225	-57495
2532	909	200	200	86225	-57495
2533	910	200	200	86237	-57495
2534	910	200	200	86237	-57492
2535	909	200	200	86237	-57492
2536	908	200	200	86250	-57492
2537	910	200	200	86250	-57490
2538	910	200	200	86250	-57490
2539	910	200	200	86261	-57490
2540	910	200	200	86261	-57488
2541	909	200	200	86261	-57488
2542	909	200	200	86273	-57488
2543	910	200	200	86273	-57486
2544	909	200	200	86273	-57486
2545	910	200	200	86287	-57486
2546	908	200	200	86287	-57484
2547	909	200	200	86287	-57484
2548	908	200	200	86300	-57484
2549	909	200	200	86300	-57482
2550	910	200	200	86300	-57482
2551	909	200	200	86313	-57482
2552	910	200	200	86313	-57481
2553	910	200	200	86313	-57481
2554	909	200	200	86323	-57481
2555	910	200	200	86323	-57480
2556	909	200	200	86323	-57480
2557	910	200	200	86333	-57480
2558	908	200	200	86333	-57479
2559	909	200	200	86333	-57479
2560	909	200	200	86344	-57479
2561	909	200	200	86344	-57478
2562	909	200	200	86344	-57478
2563	910	200	200	86354	-57478
2564	909	200	200	86354	-57477
2565	910	200	200	86354	-57477
2566	909	200	200	86365	-57477
2567	910	200	200	86365	-57476
2568	909	200	200	86365	-57476
2569	909	200	200	86376	-57476
2570	910	200	200	86376	-57476
2571	910	200	200	86376	-57476
2572	910	200	200	86386	-57476
2573	910	200	200	86386	-57476
2574	909	200	200	86386	-57476
2575	910	200	200	86396	-57476
2576	910	200	200	86396	-57476
2577	910	200	200	86396	-57475
2578	909	200	200	86406	-57475
2579	910	200	200	86406	-57475
2580	910	200	200	86406	-57475
2581	910	200	200	86416	-57475
2582	909	200	200	86416	-57475
2583	909	200	200	86416	-57475
2584	909	200	200	86425	-57475
2585	909	200	200	86425	-57475
2586	910	200	200	86425	-57475
2587	910	200	200	86433	-57475
2588	910	200	200	86433	-57475
2589	908	200	200	86433	-57475
2590	909	200	200	86440	-57475
2591	909	200	200	86440	-57475
2592	908	200	200	86440	-57474
2593	910	200	200	86445	-57474
2594	909	200	200	86445	-57474
2595	910	200	200	86445	-57474
2596	910	200	200	86448	-57474
2597	910	200	200	86448	-57474
2598	909	200	200	86448	-57474
2599	909	200	200	86452	-57474
2600	909	200	200	86452	-57474
2601	909	200	200	86452	-57474
2602	910	200	200	86456	-57474
2603	910	200	200	86456	-57474
2604	909	200	200	86456	-57473
2605	909	200	200	86461	-57473
2606	908	200	200	86461	-57473
2607	909	200	200	86461	-57473
2608	910	200	200	86466	-57473
2609	910	200	200	86466	-57473
2610	910	200	200	86466	-57473
2611	909	200	200	86471	-57473
2612	908	200	200	86471	-57473
2613	907	200	200	86471	-57473
2614	909	200	200	86477	-57473
2615	910	200	200	86477	-57473
2616	910	200	200	86477	-57472
2617	908	200	200	86483	-57472
2618	910	200	200	86483	-57472
2619	908	200	200	86483	-57472
2620	910	200	200	86488	-57472
2621	910	200	200	86488	-57472
2622	910	200	200	86488	-57471
2623	908	200	200	86493	-57471
2624	910	200	200	86493	-57471
2625	909	200	200	86493	-57471
2626	910	200	200	86499	-57471
2627	910	200	200	86499	-57471
2628	910	200	200	86499	-57471
2629	909	200	200	86505	-57471
2630	910	200	200	86505	-57471
2631	910	200	200	86505	-57470
2632	910	200	200	86505	-57470
2633	910	200	200	86511	-57470
2634	911	200	200	86511	-57470
2635	909	200	200	86511	-57470
2636	909	200	200	86518	-57470
2637	910	200	200	86518	-57469
2638	909	200	200	86518	-57469
2639	910	200	200	86526	-57469
2640	910	200	200	86526	-57468
2641	910	200	200	86526	-57468
2642	910	200	200	86534	-57468
2643	910	200	200	86534	-57468
2644	908	200	200	86534	-57468
2645	910	200	200	86543	-57468
2646	910	200	200	86543	-57467
2647	910	200	200	86543	-57467
2648	909	200	200	86551	-57467
2649	909	200	200	86551	-57466
2650	909	200	200	86551	-57466
2651	910	200	200	86561	-57466
2652	911	200	200	86561	-57465
2653	910	200	200	86561	-57465
2654	909	200	200	86571	-57465
2655	910	200	200	86571	-57464
2656	908	200	200	86571	-57464
2657	910	200	200	86580	-57464
2658	910	200	200	86580	-57462
2659	910	200	200	86580	-57462
2660	908	200	200	86591	-57462
2661	909	200	200	86591	-57461
2662	909	200	200	86591	-57461
2663	910	200	200	86600	-57461
2664	910	200	200	86600	-57459
2665	910	200	200	86600	-57459
2666	908	200	200	86611	-57459
2667	908	200	200	86611	-57457
2668	907	200	200	86611	-57457
2669	910	200	200	86621	-57457
2670	910	200	200	86621	-57456
2671	910	200	200	86621	-57456
2672	910	200	200	86630	-57456
2673	908	200	200	86630	-57453
2674	908	200	200	86630	-57453
2675	910	200	200	86639	-57453
2676	910	200	200	86639	-57451
2677	910	200	200	86639	-57451
2678	910	200	200	86649	-57451
2679	910	200	200	86649	-57449
2680	908	200	200	86649	-57449
2681	910	200	200	86659	-57449
2682	910	200	200	86659	-57446
2683	910	200	200	86659	-57446
2684	910	200	200	86670	-57446
2685	910	200	200	86670	-57443
2686	909	200	200	86670	-57443
2687	910	200	200	86679	-57443
2688	909	200	200	86679	-57443
2689	909	200	200	86679	-57440
2690	909	200	200	86690	-57440
2691	909	200	200	86690	-57440
2692	911	200	200	86690	-57437
2693	908	200	200	86700	-57437
2694	910	200	200	86700	-57437
2695	909	200	200	86700	-57433
2696	910	200	200	86710	-57433
2697	910	200	200	86710	-57433
2698	909	200	200	86710	-57429
2699	910	200	200	86718	-57429
2700	909	200	200	86718	-57429
2701	910	200	200	86718	-57426
2702	909	200	200	86727	-57426
2703	910	200	200	86727	-57426
2704	909	200	200	86727	-57422
2705	909	200	200	86736	-57422
2706	909	200	200	86736	-57422
2707	910	200	200	86736	-57418
2708	910	200	200	86745	-57418
2709	908	200	200	86745	-57418
2710	910	200	200	86745	-57413
2711	909	200	200	86753	-57413
2712	910	200	200	86753	-57413
2713	910	200	200	86753	-57409
2714	909	200	200	86760	-57409
2715	910	200	200	86760	-57409
2716	911	200	200	86760	-57403
2717	914	200	200	86766	-57403
2718	912	200	200	86766	-57403
2719	914	200	200	86766	-57398
2720	914	200	200	86772	-57398
2721	913	200	200	86772	-57398
2722	913	200	200	86772	-57393
2723	914	200	200	86777	-57393
2724	913	200	200	86777	-57393
2725	914	200	200	86777	-57387
2726	914	200	200	86781	-57387
2727	913	200	200	86781	-57387
2728	914	200	200	86781	-57381
2729	914	200	200	86786	-57381
2730	915	200	200	86786	-57381
2731	914	200	200	86786	-57375
2732	914	200	200	86790	-57375
2733	913	200	200	86790	-57375
2734	914	200	200	86790	-57370
2735	912	200	200	86793	-57370
2736	913	200	200	86793	-57370
2737	913	200	200	86793	-57365
2738	912	200	200	86796	-57365
2739	914	200	200	86796	-57365
2740	912	200	200	86796	-57361
2741	914	200	200	86798	-57361
2742	914	200	200	86798	-57361
2743	914	200	200	86798	-57356
2744	911	200	200	86799	-57356
2745	913	200	200	86799	-57356
2746	913	200	200	86799	-57350
2747	912	200	200	86799	-57350
2748	914	200	200	86800	-57350
2749	912	200	200	86800	-57344
2750	914	200	200	86800	-57344
2751	913	200	200	86801	-57344
2752	914	200	200	86801	-57337
2753	912	200	200	86801	-57337
2754	914	200	200	86802	-57337
2755	913	200	200	86802	-57330
2756	912	200	200	86802	-57330
2757	914	200	200	86802	-57330
2758	912	200	200	86802	-57322
2759	914	200	200	86802	-57322
2760	913	200	200	86802	-57322
2761	914	200	200	86802	-57315
2762	912	200	200	86802	-57315
2763	913	200	200	86803	-57315
2764	913	200	200	86803	-57309
2765	913	200	200	86803	-57309
2766	914	200	200	86803	-57309
2767	913	200	200	86803	-57302
2768	913	200	200	86803	-57302
2769	913	200	200	86803	-57302
2770	914	200	200	86803	-57296
2771	914	200	200	86803	-57296
2772	914	200	200	86803	-57296
2773	914	200	200	86803	-57289
2774	914	200	200	86803	-57289
2775	912	200	200	86804	-57289
2776	913	200	200	86804	-57282
2777	914	200	200	86804	-57282
2778	914	200	200	86804	-57282
2779	912	200	200	86804	-57274
2780	914	200	200	86804	-57274
2781	913	200	200	86804	-57274
2782	914	200	200	86804	-57267
2783	914	200	200	86804	-57267
2784	913	200	200	86804	-57267
2785	913	200	200	86804	-57260
2786	911	200	200	86804	-57260
2787	913	200	200	86804	-57260
2788	914	200	200	86804	-57253
2789	913	200	200	86804	-57253
2790	911	200	200	86804	-57253
2791	913	200	200	86804	-57247
2792	914	200	200	86804	-57247
2793	914	200	200	86805	-57247
2794	914	200	200	86805	-57240
2795	911	200	200	86805	-57240
2796	913	200	200	86805	-57240
2797	914	200	200	86805	-57235
2798	914	200	200	86805	-57235
2799	914	200	200	86805	-57235
2800	914	200	200	86805	-57229
2801	913	200	200	86805	-57229
2802	913	200	200	86805	-57229
2803	913	200	200	86805	-57223
2804	914	200	200	86805	-57223
2805	914	200	200	86805	-57223
2806	913	200	200	86805	-57223
2807	912	200	200	86805	-57217
2808	912	200	200	86805	-57217
2809	914	200	200	86805	-57217
2810	914	200	200	86805	-57211
2811	913	200	200	86806	-57211
2812	913	200	200	86806	-57211
2813	913	200	200	86806	-57205
2814	914	200	200	86806	-57205
2815	914	200	200	86806	-57205
2816	913	200	200	86806	-57199
2817	913	200	200	86806	-57199
2818	914	200	200	86806	-57199
2819	914	200	200	86806	-57194
2820	915	200	200	86806	-57194
2821	914	200	200	86806	-57194
2822	913	200	200	86806	-57190
2823	914	200	200	86806	-57190
2824	912	200	200	86806	-57190
2825	914	200	200	86806	-57186
2826	914	200	200	86806	-57186
2827	914	200	200	86806	-57186
2828	914	200	200	86806	-57182
2829	912	200	200	86806	-57182
2830	914	200	200	86806	-57182
2831	914	200	200	86806	-57179
2832	913	200	200	86806	-57179
2833	911	200	200	86806	-57179
2834	912	200	200	86806	-57176
2835	912	200	200	86807	-57176
2836	914	200	200	86807	-57176
2837	913	200	200	86807	-57173
2838	913	200	200	86807	-57173
2839	913	200	200	86807	-57173
2840	911	200	200	86807	-57169
2841	912	200	200	86807	-57169
2842	914	200	200	86807	-57169
2843	914	200	200	86807	-57166
2844	912	200	200	86807	-57166
2845	914	200	200	86807	-57166
2846	914	200	200	86807	-57164
2847	914	200	200	86807	-57164
2848	914	200	200	86807	-57164
2849	912	200	200	86807	-57161
2850	913	200	200	86807	-57161
2851	914	200	200	86807	-57161
2852	914	200	200	86807	-57159
2853	914	200	200	86807	-57159
2854	914	200	200	86807	-57159
2855	913	200	200	86807	-57157
2856	915	200	200	86807	-57157
2857	913	200	200	86807	-57157
2858	914	200	200	86807	-57155
2859	913	200	200	86808	-57155
2860	914	200	200	86808	-57155
2861	913	200	200	86808	-57153
2862	914	200	200	86808	-57153
2863	913	200	200	86808	-57153
2864	914	200	200	86808	-57151
2865	914	200	200	86808	-57151
2866	913	200	200	86808	-57151
2867	913	200	200	86808	-57149
2868	914	200	200	86808	-57149
2869	914	200	200	86808	-57149
2870	913	200	200	86808	-57147
2871	914	200	200	86808	-57147
2872	913	200	200	86808	-57147
2873	913	200	200	86808	-57145
2874	911	200	200	86808	-57145
2875	913	200	200	86808	-57145
2876	913	200	200	86808	-57144
2877	913	200	200	86808	-57144
2878	912	200	200	86808	-57144
2879	913	200	200	86808	-57143
2880	913	200	200	86808	-57143
2881	914	200	200	86808	-57143
2882	914	200	200	86808	-57141
2883	914	200	200	86808	-57141
2884	914	200	200	86808	-57141
2885	914	200	200	86808	-57140
2886	913	200	200	86808	-57140
2887	914	200	200	86809	-57140
2888	912	200	200	86809	-57139
2889	914	200	200	86809	-57139
2890	914	200	200	86809	-57139
2891	913	200	200	86809	-57138
2892	912	200	200	86809	-57138
2893	913	200	200	86809	-57138
2894	913	200	200	86809	-57137
2895	913	200	200	86809	-57137
2896	914	200	200	86809	-57137
2897	914	200	200	86809	-57136
2898	914	200	200	86809	-57136
2899	913	200	200	86809	-57136
2900	913	200	200	86809	-57135
2901	913	200	200	86809	-57135
2902	913	200	200	86809	-57135
2903	913	200	200	86809	-57135
2904	913	200	200	86809	-57135
2905	914	200	200	86809	-57135
2906	914	200	200	86809	-57134
2907	914	200	200	86809	-57134
2908	912	200	200	86809	-57134
2909	913	200	200	86809	-57134
2910	913	200	200	86809	-57134
2911	913	200	200	86809	-57134
2912	913	200	200	86809	-57134
2913	913	200	200	86809	-57134
2914	914	200	200	86810	-57134
2915	913	200	200	86810	-57133
2916	914	200	200	86810	-57133
2917	914	200	200	86810	-57133
2918	915	200	200	86810	-57133
2919	913	200	200	86810	-57133
2920	914	200	200	86810	-57133
2921	913	200	200	86810	-57132
2922	914	200	200	86810	-57132
2923	913	200	200	86810	-57132
2924	912	200	200	86810	-57132
2925	912	200	200	86810	-57132
2926	913	200	200	86810	-57132
2927	914	200	200	86810	-57132
2928	912	200	200	86810	-57131
2929	914	200	200	86810	-57131
2930	913	200	200	86810	-57131
2931	914	200	200	86810	-57131
2932	912	200	200	86810	-57131
2933	913	200	200	86810	-57131
2934	913	200	200	86810	-57131
2935	913	200	200	86810	-57131
2936	913	200	200	86810	-57131
2937	914	200	200	86810	-57130
2938	914	200	200	86810	-57130
2939	914	200	200	86810	-57130
2940	914	200	200	86810	-57130
2941	915	200	200	86810	-57130
2942	914	200	200	86810	-57130
2943	914	200	200	86810	-57129
2944	914	200	200	86810	-57129
2945	911	200	200	86810	-57129
2946	914	200	200	86810	-57129
2947	914	200	200	86810	-57129
2948	914	200	200	86810	-57129
2949	914	200	200	86810	-57129
2950	913	200	200	86811	-57129
2951	914	200	200	86811	-57129
2952	914	200	200	86811	-57128
2953	914	200	200	86811	-57128
2954	912	200	200	86811	-57128
2955	912	200	200	86811	-57128
2956	911	200	200	86811	-57128
2957	913	200	200	86811	-57128
2958	914	200	200	86811	-57127
2959	914	200	200	86811	-57127
2960	913	200	200	86811	-57127
2961	911	200	200	86811	-57127
2962	913	200	200	86811	-57127
2963	915	200	200	86811	-57127
2964	913	200	200	86811	-57127
2965	913	200	200	86811	-57127
2966	914	200	200	86811	-57127
2967	914	200	200	86811	-57126
2968	914	200	200	86811	-57126
2969	914	200	200	86811	-57126
2970	913	200	200	86811	-57126
2971	912	200	200	86811	-57126
2972	914	200	200	86811	-57126
2973	914	200	200	86811	-57125
2974	914	200	200	86811	-57125
2975	914	200	200	86811	-57125
2976	911	200	200	86811	-57125
2977	911	200	200	86811	-57125
2978	914	200	200	86811	-57125
2979	914	200	200	86811	-57125
2980	915	200	200	86811	-57125
2981	914	200	200	86811	-57125
2982	914	200	200	86811	-57124
2983	912	200	200	86811	-57124
2984	913	200	200	86811	-57124
2985	913	200	200	86811	-57124
2986	914	200	200	86811	-57124
2987	915	200	200	86811	-57124
2988	914	200	200	86811	-57124
2989	913	200	200	86811	-57124
2990	914	200	200	86812	-57124
2991	913	200	200	86812	-57123
2992	914	200	200	86812	-57123
2993	914	200	200	86812	-57123
2994	914	200	200	86812	-57123
2995	914	200	200	86812	-57123
2996	914	200	200	86812	-57123
2997	913	200	200	86812	-57123
2998	914	200	200	86812	-57123
2999	914	200	200	86812	-57123
3000	911	200	200	86812	-57122
3001	914	200	200	86812	-57122
3002	912	200	200	86812	-57122
3003	914	200	200	86812	-57122
3004	914	200	200	86812	-57122
3005	913	200	200	86812	-57122
3006	914	200	200	86812	-57122
3007	913	200	200	86812	-57122
3008	913	200	200	86812	-57122
3009	914	200	200	86812	-57121
3010	914	200	200	86812	-57121
3011	912	200	200	86812	-57121
3012	913	200	200	86812	-57121
3013	914	200	200	86812	-57121
3014	914	200	200	86813	-57121
3015	914	200	200	86813	-57121
3016	914	200	200	86813	-57121
3017	914	200	200	86816	-57121
3018	913	200	200	86816	-57121
3019	914	200	200	86816	-57121
3020	915	200	200	86820	-57121
3021	914	200	200	86820	-57120
3022	914	200	200	86820	-57120
3023	913	200	200	86825	-57120
3024	914	200	200	86825	-57120
3025	915	200	200	86825	-57120
3026	914	200	200	86831	-57120
3027	914	200	200	86831	-57120
3028	914	200	200	86831	-57120
3029	914	200	200	86836	-57120
3030	913	200	200	86836	-57119
3031	913	200	200	86836	-57119
3032	913	200	200	86841	-57119
3033	913	200	200	86841	-57119
3034	913	200	200	86841	-57119
3035	913	200	200	86846	-57119
3036	913	200	200	86846	-57119
3037	912	200	200	86846	-57119
3038	914	200	200	86850	-57119
3039	913	200	200	86850	-57119
3040	914	200	200	86850	-57119
3041	912	200	200	86856	-57119
3042	914	200	200	86856	-57119
3043	913	200	200	86856	-57118
3044	912	200	200	86862	-57118
3045	914	200	200	86862	-57118
3046	913	200	200	86862	-57118
3047	915	200	200	86870	-57118
3048	913	200	200	86870	-57118
3049	914	200	200	86870	-57118
3050	913	200	200	86878	-57118
3051	914	200	200	86878	-57118
3052	913	200	200	86878	-57118
3053	914	200	200	86885	-57118
3054	913	200	200	86885	-57118
3055	913	200	200	86885	-57118
3056	914	200	200	86892	-57118
3057	913	200	200	86892	-57118
3058	914	200	200	86892	-57117
3059	914	200	200	86900	-57117
3060	914	200	200	86900	-57117
3061	913	200	200	86900	-57117
3062	913	200	200	86908	-57117
3063	913	200	200	86908	-57117
3064	914	200	200	86908	-57117
3065	913	200	200	86918	-57117
3066	912	200	200	86918	-57117
3067	914	200	200	86918	-57117
3068	913	200	200	86928	-57117
3069	913	200	200	86928	-57117
3070	913	200	200	86928	-57117
3071	914	200	200	86938	-57117
3072	914	200	200	86938	-57117
3073	914	200	200	86938	-57116
3074	914	200	200	86950	-57116
3075	912	200	200	86950	-57116
3076	913	200	200	86950	-57116
3077	913	200	200	86960	-57116
3078	914	200	200	86960	-57116
3079	913	200	200	86960	-57116
3080	914	200	200	86969	-57116
3081	913	200	200	86969	-57116
3082	914	200	200	86969	-57116
3083	914	200	200	86978	-57116
3084	913	200	200	86978	-57116
3085	913	200	200	86978	-57116
3086	913	200	200	86988	-57116
3087	912	200	200	86988	-57116
3088	913	200	200	86988	-57115
3089	912	200	200	86998	-57115
3090	915	200	200	86998	-57115
3091	913	200	200	86998	-57115
3092	913	200	200	87008	-57115
3093	911	200	200	87008	-57115
3094	913	200	200	87008	-57115
3095	912	200	200	87017	-57115
3096	913	200	200	87017	-57115
3097	914	200	200	87017	-57115
3098	913	200	200	87025	-57115
3099	914	200	200	87025	-57115
3100	913	200	200	87025	-57115
3101	914	200	200	87034	-57115
3102	913	200	200	87034	-57115
3103	914	200	200	87034	-57115
3104	913	200	200	87042	-57115
3105	914	200	200	87042	-57115
3106	913	200	200	87042	-57115
3107	913	200	200	87042	-57115
3108	913	200	200	87052	-57115
3109	913	200	200	87052	-57114
3110	914	200	200	87052	-57114
3111	914	200	200	87060	-57114
3112	912	200	200	87060	-57114
3113	914	200	200	87060	-57114
3114	912	200	200	87068	-57114
3115	914	200	200	87068	-57114
3116	914	200	200	87068	-57114
3117	914	200	200	87076	-57114
3118	913	200	200	87076	-57114
3119	913	200	200	87076	-57114
3120	914	200	200	87084	-57114
3121	914	200	200	87084	-57114
3122	913	200	200	87084	-57114
3123	912	200	200	87092	-57114
3124	914	200	200	87092	-57114
3125	913	200	200	87092	-57114
3126	914	200	200	87099	-57114
3127	914	200	200	87099	-57114
3128	912	200	200	87099	-57114
3129	912	200	200	87106	-57114
3130	914	200	200	87106	-57114
3131	914	200	200	87106	-57114
3132	914	200	200	87110	-57114
3133	914	200	200	87110	-57114
3134	911	200	200	87110	-57114
3135	911	200	200	87112	-57114
3136	913	200	200	87112	-57113
3137	914	200	200	87112	-57113
3138	914	200	200	87113	-57113
3139	914	200	200	87113	-57113
3140	912	200	200	87113	-57113
3141	912	200	200	87115	-57113
3142	912	200	200	87115	-57113
3143	914	200	200	87115	-57113
3144	914	200	200	87116	-57113
3145	914	200	200	87116	-57113
3146	913	200	200	87116	-57113
3147	913	200	200	87117	-57113
3148	912	200	200	87117	-57113
3149	914	200	200	87117	-57113
3150	914	200	200	87118	-57113
3151	913	200	200	87118	-57113
3152	913	200	200	87118	-57113
3153	913	200	200	87119	-57113
3154	914	200	200	87119	-57113
3155	914	200	200	87119	-57113
3156	914	200	200	87120	-57113
3157	914	200	200	87120	-57113
3158	912	200	200	87120	-57113
3159	912	200	200	87121	-57113
3160	914	200	200	87121	-57113
3161	914	200	200	87121	-57113
3162	914	200	200	87122	-57113
3163	914	200	200	87122	-57113
3164	913	200	200	87122	-57112
3165	914	200	200	87123	-57112
3166	914	200	200	87123	-57112
3167	911	200	200	87123	-57112
3168	911	200	200	87124	-57112
3169	913	200	200	87124	-57112
3170	913	200	200	87124	-57112
3171	914	200	200	87126	-57112
3172	913	200	200	87126	-57112
3173	913	200	200	87126	-57112
3174	914	200	200	87127	-57112
3175	912	200	200	87127	-57112
3176	914	200	200	87127	-57112
3177	914	200	200	87128	-57112
3178	913	200	200	87128	-57112
3179	914	200	200	87128	-57112
3180	914	200	200	87129	-57112
3181	914	200	200	87129	-57112
3182	914	200	200	87129	-57112
3183	914	200	200	87130	-57112
3184	913	200	200	87130	-57112
3185	911	200	200	87130	-57111
3186	911	200	200	87132	-57111
3187	914	200	200	87132	-57111
3188	914	200	200	87132	-57111
3189	913	200	200	87133	-57111
3190	914	200	200	87133	-57111
3191	913	200	200	87133	-57111
3192	913	200	200	87135	-57111
3193	913	200	200	87135	-57111
3194	914	200	200	87135	-57111
3195	913	200	200	87136	-57111
3196	914	200	200	87136	-57111
3197	912	200	200	87136	-57111
3198	913	200	200	87137	-57111
3199	913	200	200	87137	-57111
3200	913	200	200	87137	-57111
3201	914	200	200	87138	-57111
3202	914	200	200	87138	-57111
3203	913	200	200	87138	-57111
3204	914	200	200	87140	-57111
3205	913	200	200	87140	-57111
3206	913	200	200	87140	-57110
3207	914	200	200	87141	-57110
3208	913	200	200	87141	-57110
3209	913	200	200	87141	-57110
3210	912	200	200	87142	-57110
3211	913	200	200	87142	-57110
3212	913	200	200	87142	-57110
3213	913	200	200	87143	-57110
3214	915	200	200	87143	-57110
3215	913	200	200	87143	-57110
3216	914	200	200	87145	-57110
3217	912	200	200	87145	-57110
3218	912	200	200	87145	-57110
3219	914	200	200	87146	-57110
3220	913	200	200	87146	-57110
3221	914	200	200	87146	-57109
3222	913	200	200	87148	-57109
3223	914	200	200	87148	-57109
3224	912	200	200	87148	-57109
3225	913	200	200	87148	-57109
3226	913	200	200	87150	-57109
3227	912	200	200	87150	-57109
3228	914	200	200	87150	-57109
3229	913	200	200	87152	-57109
3230	914	200	200	87152	-57109
3231	913	200	200	87152	-57109
3232	914	200	200	87154	-57109
3233	911	200	200	87154	-57108
3234	913	200	200	87154	-57108
3235	913	200	200	87156	-57108
3236	911	200	200	87156	-57108
3237	914	200	200	87156	-57108
3238	913	200	200	87158	-57108
3239	914	200	200	87158	-57108
3240	914	200	200	87158	-57108
3241	914	200	200	87160	-57108
3242	912	200	200	87160	-57108
3243	913	200	200	87160	-57108
3244	913	200	200	87163	-57108
3245	913	200	200	87163	-57107
3246	914	200	200	87163	-57107
3247	914	200	200	87166	-57107
3248	914	200	200	87166	-57107
3249	913	200	200	87166	-57107
3250	913	200	200	87169	-57107
3251	914	200	200	87169	-57107
3252	913	200	200	87169	-57107
3253	914	200	200	87172	-57107
3254	914	200	200	87172	-57106
3255	914	200	200	87172	-57106
3256	913	200	200	87175	-57106
3257	914	200	200	87175	-57106
3258	913	200	200	87175	-57106
3259	914	200	200	87179	-57106
3260	914	200	200	87179	-57106
3261	913	200	200	87179	-57106
3262	914	200	200	87182	-57106
3263	913	200	200	87182	-57105
3264	914	200	200	87182	-57105
3265	913	200	200	87186	-57105
3266	914	200	200	87186	-57105
3267	913	200	200	87186	-57105
3268	913	200	200	87190	-57105
3269	914	200	200	87190	-57104
3270	913	200	200	87190	-57104
3271	913	200	200	87194	-57104
3272	914	200	200	87194	-57104
3273	914	200	200	87194	-57104
3274	913	200	200	87198	-57104
3275	914	200	200	87198	-57104
3276	914	200	200	87198	-57103
3277	913	200	200	87203	-57103
3278	915	200	200	87203	-57103
3279	911	200	200	87203	-57103
3280	913	200	200	87208	-57103
3281	913	200	200	87208	-57103
3282	913	200	200	87208	-57102
3283	913	200	200	87212	-57102
3284	913	200	200	87212	-57102
3285	912	200	200	87212	-57102
3286	911	200	200	87217	-57102
3287	911	200	200	87217	-57102
3288	914	200	200	87217	-57101
3289	914	200	200	87223	-57101
3290	914	200	200	87223	-57101
3291	912	200	200	87223	-57101
3292	911	200	200	87229	-57101
3293	911	200	200	87229	-57101
3294	913	200	200	87229	-57100
3295	914	200	200	87236	-57100
3296	914	200	200	87236	-57100
3297	911	200	200	87236	-57099
3298	911	200	200	87244	-57099
3299	914	200	200	87244	-57099
3300	911	200	200	87244	-57099
3301	913	200	200	87252	-57099
3302	913	200	200	87252	-57099
3303	913	200	200	87252	-57098
3304	913	200	200	87261	-57098
3305	912	200	200	87261	-57098
3306	913	200	200	87261	-57097
3307	914	200	200	87271	-57097
3308	914	200	200	87271	-57097
3309	912	200	200	87271	-57096
3310	913	200	200	87280	-57096
3311	913	200	200	87280	-57096
3312	914	200	200	87280	-57096
3313	914	200	200	87290	-57096
3314	914	200	200	87290	-57096
3315	911	200	200	87290	-57095
3316	914	200	200	87300	-57095
3317	913	200	200	87300	-57095
3318	914	200	200	87300	-57094
3319	914	200	200	87310	-57094
3320	911	200	200	87310	-57094
3321	912	200	200	87310	-57093
3322	913	200	200	87320	-57093
3323	914	200	200	87320	-57093
3324	914	200	200	87320	-57092
3325	914	200	200	87330	-57092
3326	911	200	200	87330	-57092
3327	913	200	200	87330	-57092
3328	913	200	200	87339	-57092
3329	914	200	200	87339	-57092
3330	915	200	200	87339	-57091
3331	914	200	200	87349	-57091
3332	912	200	200	87349	-57091
3333	913	200	200	87349	-57090
3334	913	200	200	87358	-57090
3335	914	200	200	87358	-57090
3336	915	200	200	87358	-57089
3337	914	200	200	87367	-57089
3338	913	200	200	87367	-57089
3339	914	200	200	87367	-57089
3340	912	200	200	87376	-57089
3341	915	200	200	87376	-57089
3342	914	200	200	87376	-57088
3343	914	200	200	87376	-57088
3344	913	200	200	87386	-57088
3345	914	200	200	87386	-57087
3346	913	200	200	87386	-57087
3347	914	200	200	87395	-57087
3348	914	200	200	87395	-57086
3349	913	200	200	87395	-57086
3350	914	200	200	87404	-57086
3351	912	200	200	87404	-57085
3352	913	200	200	87404	-57085
3353	914	200	200	87412	-57085
3354	914	200	200	87412	-57084
3355	913	200	200	87412	-57084
3356	913	200	200	87419	-57084
3357	913	200	200	87419	-57083
3358	913	200	200	87419	-57083
3359	914	200	200	87426	-57083
3360	914	200	200	87426	-57082
3361	913	200	200	87426	-57082
3362	914	200	200	87434	-57082
3363	913	200	200	87434	-57080
3364	914	200	200	87434	-57080
3365	913	200	200	87441	-57080
3366	914	200	200	87441	-57079
3367	913	200	200	87441	-57079
3368	914	200	200	87448	-57079
3369	914	200	200	87448	-57077
3370	913	200	200	87448	-57077
3371	914	200	200	87454	-57077
3372	914	200	200	87454	-57076
3373	914	200	200	87454	-57076
3374	913	200	200	87460	-57076
3375	914	200	200	87460	-57075
3376	913	200	200	87460	-57075
3377	914	200	200	87465	-57075
3378	913	200	200	87465	-57074
3379	913	200	200	87465	-57074
3380	914	200	200	87469	-57074
3381	914	200	200	87469	-57073
3382	913	200	200	87469	-57073
3383	912	200	200	87473	-57073
3384	914	200	200	87473	-57072
3385	913	200	200	87473	-57072
3386	914	200	200	87477	-57072
3387	914	200	200	87477	-57070
3388	913	200	200	87477	-57070
3389	913	200	200	87480	-57070
3390	914	200	200	87480	-57070
3391	914	200	200	87480	-57069
3392	913	200	200	87482	-57069
3393	914	200	200	87482	-57069
3394	913	200	200	87482	-57068
3395	914	200	200	87483	-57068
3396	913	200	200	87483	-57068
3397	913	200	200	87483	-57067
3398	913	200	200	87484	-57067
3399	913	200	200	87484	-57067
3400	914	200	200	87484	-57065
3401	913	200	200	87485	-57065
3402	914	200	200	87485	-57065
3403	914	200	200	87485	-57064
3404	913	200	200	87485	-57064
3405	914	200	200	87485	-57064
3406	912	200	200	87485	-57062
3407	913	200	200	87485	-57062
3408	913	200	200	87485	-57062
3409	913	200	200	87485	-57061
3410	914	200	200	87486	-57061
3411	913	200	200	87486	-57061
3412	914	200	200	87486	-57059
3413	913	200	200	87486	-57059
3414	914	200	200	87486	-57059
3415	914	200	200	87486	-57057
3416	912	200	200	87486	-57057
3417	913	200	200	87486	-57057
3418	913	200	200	87486	-57055
3419	914	200	200	87487	-57055
3420	913	200	200	87487	-57055
3421	914	200	200	87487	-57054
3422	914	200	200	87487	-57054
3423	914	200	200	87487	-57054
3424	913	200	200	87487	-57052
3425	914	200	200	87487	-57052
3426	913	200	200	87487	-57052
3427	914	200	200	87487	-57050
3428	914	200	200	87487	-57050
3429	913	200	200	87487	-57050
3430	914	200	200	87487	-57048
3431	913	200	200	87488	-57048
3432	914	200	200	87488	-57048
3433	914	200	200	87488	-57045
3434	913	200	200	87488	-57045
3435	914	200	200	87488	-57045
3436	914	200	200	87488	-57043
3437	914	200	200	87488	-57043
3438	914	200	200	87488	-57043
3439	913	200	200	87488	-57040
3440	913	200	200	87488	-57040
3441	913	200	200	87488	-57040
3442	914	200	200	87488	-57038
3443	913	200	200	87488	-57038
3444	914	200	200	87488	-57038
3445	914	200	200	87488	-57035
3446	913	200	200	87488	-57035
3447	913	200	200	87488	-57035
3448	913	200	200	87488	-57032
3449	914	200	200	87489	-57032
3450	911	200	200	87489	-57032
3451	911	200	200	87489	-57029
3452	913	200	200	87489	-57029
3453	914	200	200	87489	-57029
3454	914	200	200	87489	-57025
3455	914	200	200	87489	-57025
3456	913	200	200	87489	-57025
3457	912	200	200	87489	-57022
3458	914	200	200	87489	-57022
3459	913	200	200	87489	-57022
3460	915	200	200	87489	-57020
3461	914	200	200	87489	-57020
3462	911	200	200	87489	-57020
3463	912	200	200	87489	-57018
3464	913	200	200	87489	-57018
3465	913	200	200	87489	-57018
3466	914	200	200	87489	-57016
3467	914	200	200	87489	-57016
3468	912	200	200	87489	-57016
3469	912	200	200	87489	-57014
3470	914	200	200	87489	-57014
3471	913	200	200	87490	-57014
3472	914	200	200	87490	-57013
3473	914	200	200	87490	-57013
3474	911	200	200	87490	-57013
3475	912	200	200	87490	-57010
3476	914	200	200	87490	-57010
3477	914	200	200	87490	-57010
3478	915	200	200	87490	-57008
3479	914	200	200	87490	-57008
3480	911	200	200	87490	-57008
3481	912	200	200	87490	-57005
3482	913	200	200	87490	-57005
3483	914	200	200	87490	-57005
3484	914	200	200	87490	-57002
3485	914	200	200	87490	-57002
3486	911	200	200	87490	-57002
3487	912	200	200	87490	-56999
3488	914	200	200	87490	-56999
3489	914	200	200	87490	-56999
3490	914	200	200	87490	-56995
3491	914	200	200	87490	-56995
3492	913	200	200	87490	-56995
3493	913	200	200	87490	-56991
3494	914	200	200	87490	-56991
3495	914	200	200	87491	-56991
3496	914	200	200	87491	-56988
3497	914	200	200	87491	-56988
3498	914	200	200	87491	-56988
3499	913	200	200	87491	-56984
3500	914	200	200	87491	-56984
3501	913	200	200	87491	-56984
3502	913	200	200	87491	-56981
3503	914	200	200	87491	-56981
3504	914	200	200	87491	-56981
3505	914	200	200	87491	-56977
3506	913	200	200	87491	-56977
3507	911	200	200	87491	-56977
3508	911	200	200	87491	-56974
3509	912	200	200	87491	-56974
3510	914	200	200	87491	-56974
3511	914	200	200	87491	-56971
3512	913	200	200	87491	-56971
3513	912	200	200	87491	-56971
3514	913	200	200	87491	-56971
3515	911	200	200	87491	-56968
3516	913	200	200	87491	-56968
3517	914	200	200	87491	-56968
3518	914	200	200	87491	-56965
3519	912	200	200	87492	-56965
3520	911	200	200	87492	-56965
3521	912	200	200	87492	-56962
3522	914	200	200	87492	-56962
3523	914	200	200	87492	-56962
3524	913	200	200	87492	-56959
3525	912	200	200	87492	-56959
3526	913	200	200	87492	-56959
3527	912	200	200	87492	-56956
3528	914	200	200	87492	-56956
3529	914	200	200	87492	-56956
3530	914	200	200	87492	-56953
3531	912	200	200	87492	-56953
3532	914	200	200	87492	-56953
3533	913	200	200	87492	-56950
3534	914	200	200	87492	-56950
3535	914	200	200	87492	-56950
3536	913	200	200	87492	-56946
3537	913	200	200	87492	-56946
3538	914	200	200	87492	-56946
3539	914	200	200	87492	-56941
3540	913	200	200	87492	-56941
3541	914	200	200	87492	-56941
3542	914	200	200	87492	-56937
3543	914	200	200	87492	-56937
3544	914	200	200	87492	-56937
3545	914	200	200	87492	-56933
3546	913	200	200	87492	-56933
3547	914	200	200	87492	-56933
3548	914	200	200	87492	-56929
3549	913	200	200	87493	-56929
3550	914	200	200	87493	-56929
3551	914	200	200	87493	-56925
3552	913	200	200	87493	-56925
3553	914	200	200	87493	-56925
3554	913	200	200	87493	-56921
3555	913	200	200	87493	-56921
3556	914	200	200	87493	-56921
3557	914	200	200	87493	-56918
3558	913	200	200	87493	-56918
3559	914	200	200	87493	-56918
3560	913	200	200	87493	-56915
3561	915	200	200	87493	-56915
3562	913	200	200	87493	-56915
3563	913	200	200	87493	-56912
3564	913	200	200	87493	-56912
3565	913	200	200	87493	-56912
3566	914	200	200	87493	-56909
3567	913	200	200	87493	-56909
3568	914	200	200	87493	-56909
3569	914	200	200	87493	-56905
3570	913	200	200	87493	-56905
3571	913	200	200	87493	-56905
3572	914	200	200	87493	-56902
3573	914	200	200	87494	-56902
3574	913	200	200	87494	-56902
3575	914	200	200	87494	-56899
3576	914	200	200	87494	-56899
3577	914	200	200	87494	-56899
3578	913	200	200	87494	-56897
3579	914	200	200	87494	-56897
3580	913	200	200	87494	-56897
3581	913	200	200	87494	-56894
3582	913	200	200	87494	-56894
3583	914	200	200	87494	-56894
3584	914	200	200	87494	-56892
3585	913	200	200	87494	-56892
3586	914	200	200	87494	-56892
3587	912	200	200	87494	-56890
3588	914	200	200	87494	-56890
3589	912	200	200	87494	-56890
3590	912	200	200	87494	-56888
3591	914	200	200	87494	-56888
3592	913	200	200	87494	-56888
3593	914	200	200	87494	-56886
3594	913	200	200	87494	-56886
3595	914	200	200	87494	-56886
3596	913	200	200	87494	-56884
3597	912	200	200	87494	-56884
3598	913	200	200	87494	-56884
3599	913	200	200	87494	-56882
3600	914	200	200	87494	-56882
3601	914	200	200	87494	-56882
3602	914	200	200	87494	-56880
3603	913	200	200	87494	-56880
3604	914	200	200	87494	-56880
3605	914	200	200	87494	-56878
3606	914	200	200	87494	-56878
3607	914	200	200	87494	-56878
3608	914	200	200	87494	-56876
3609	914	200	200	87494	-56876
3610	913	200	200	87495	-56876
3611	913	200	200	87495	-56874
3612	913	200	200	87495	-56874
3613	913	200	200	87495	-56874
3614	913	200	200	87495	-56872
3615	914	200	200	87495	-56872
3616	913	200	200	87495	-56872
3617	914	200	200	87495	-56870
3618	913	200	200	87495	-56870
3619	913	200	200	87495	-56870
3620	914	200	200	87495	-56868
3621	914	200	200	87495	-56868
3622	913	200	200	87495	-56868
3623	914	200	200	87495	-56866
3624	914	200	200	87495	-56866
3625	913	200	200	87495	-56866
3626	914	200	200	87495	-56864
3627	914	200	200	87495	-56864
3628	912	200	200	87495	-56864
3629	914	200	200	87495	-56862
3630	914	200	200	87495	-56862
3631	914	200	200	87495	-56862
3632	914	200	200	87495	-56862
3633	914	200	200	87495	-56861
3634	913	200	200	87495	-56861
3635	913	200	200	87495	-56861
3636	914	200	200	87495	-56859
3637	912	200	200	87495	-56859
3638	914	200	200	87495	-56859
3639	914	200	200	87495	-56857
3640	914	200	200	87495	-56857
3641	913	200	200	87495	-56857
3642	914	200	200	87495	-56855
3643	911	200	200	87495	-56855
3644	914	200	200	87495	-56855
3645	915	200	200	87495	-56854
3646	914	200	200	87496	-56854
3647	913	200	200	87496	-56854
3648	914	200	200	87496	-56852
3649	911	200	200	87496	-56852
3650	914	200	200	87496	-56852
3651	914	200	200	87496	-56851
3652	914	200	200	87496	-56851
3653	914	200	200	87496	-56851
3654	914	200	200	87496	-56849
3655	912	200	200	87496	-56849
3656	914	200	200	87496	-56849
3657	915	200	200	87496	-56848
3658	914	200	200	87496	-56848
3659	913	200	200	87496	-56848
3660	913	200	200	87496	-56848
3661	913	200	200	87496	-56848
3662	914	200	200	87496	-56848
3663	914	200	200	87496	-56848
3664	912	200	200	87496	-56848
3665	914	200	200	87496	-56848
3666	914	200	200	87496	-56847
3667	914	200	200	87496	-56847
3668	914	200	200	87496	-56847
3669	915	200	200	87496	-56847
3670	913	200	200	87496	-56847
3671	914	200	200	87496	-56847
3672	914	200	200	87496	-56847
3673	914	200	200	87496	-56847
3674	914	200	200	87496	-56847
3675	914	200	200	87496	-56846
3676	913	200	200	87496	-56846
3677	914	200	200	87496	-56846
3678	913	200	200	87496	-56846
3679	914	200	200	87496	-56846
3680	913	200	200	87496	-56846
3681	914	200	200	87496	-56846
3682	912	200	200	87496	-56846
3683	912	200	200	87496	-56846
3684	913	200	200	87496	-56846
3685	914	200	200	87496	-56846
3686	914	200	200	87496	-56846
3687	914	200	200	87496	-56845
3688	913	200	200	87497	-56845
3689	912	200	200	87497	-56845
3690	912	200	200	87497	-56845
3691	914	200	200	87497	-56845
3692	914	200	200	87497	-56845
3693	913	200	200	87497	-56845
3694	914	200	200	87497	-56845
3695	912	200	200	87497	-56845
3696	913	200	200	87497	-56845
3697	914	200	200	87497	-56845
3698	913	200	200	87497	-56845
3699	912	200	200	87497	-56844
3700	914	200	200	87497	-56844
3701	913	200	200	87497	-56844
3702	914	200	200	87497	-56844
3703	913	200	200	87497	-56844
3704	911	200	200	87497	-56844
3705	913	200	200	87497	-56844
3706	913	200	200	87497	-56844
3707	914	200	200	87497	-56844
3708	913	200	200	87497	-56843
3709	913	200	200	87497	-56843
3710	913	200	200	87497	-56843
3711	914	200	200	87497	-56843
3712	914	200	200	87497	-56843
3713	912	200	200	87497	-56843
3714	914	200	200	87497	-56843
3715	914	200	200	87497	-56843
3716	914	200	200	87497	-56843
3717	913	200	200	87497	-56843
3718	913	200	200	87497	-56843
3719	914	200	200	87497	-56843
3720	913	200	200	87497	-56842
3721	914	200	200	87497	-56842
3722	914	200	200	87497	-56842
3723	913	200	200	87497	-56842
3724	913	200	200	87497	-56842
3725	913	200	200	87497	-56842
3726	914	200	200	87497	-56842
3727	913	200	200	87497	-56842
3728	915	200	200	87497	-56842
3729	913	200	200	87497	-56841
3730	914	200	200	87497	-56841
3731	912	200	200	87498	-56841
3732	913	200	200	87498	-56841
3733	913	200	200	87498	-56841
3734	912	200	200	87498	-56841
3735	914	200	200	87498	-56841
3736	913	200	200	87498	-56841
3737	914	200	200	87498	-56841
3738	913	200	200	87498	-56841
3739	913	200	200	87498	-56841
3740	914	200	200	87498	-56841
3741	914	200	200	87498	-56840
3742	913	200	200	87498	-56840
3743	914	200	200	87498	-56840
3744	913	200	200	87498	-56840
3745	914	200	200	87498	-56840
3746	914	200	200	87498	-56840
3747	913	200	200	87498	-56840
3748	914	200	200	87498	-56840
3749	914	200	200	87498	-56840
3750	914	200	200	87498	-56840
3751	914	200	200	87498	-56839
3752	914	200	200	87498	-56839
3753	913	200	200	87498	-56839
3754	914	200	200	87498	-56839
3755	912	200	200	87499	-56839
3756	913	200	200	87499	-56839
3757	912	200	200	87499	-56839
3758	912	200	200	87500	-56839
3759	914	200	200	87500	-56839
3760	913	200	200	87500	-56838
3761	914	200	200	87501	-56838
3762	912	200	200	87501	-56838
3763	914	200	200	87501	-56838
3764	911	200	200	87501	-56838
3765	913	200	200	87501	-56838
3766	913	200	200	87501	-56838
3767	912	200	200	87503	-56838
3768	913	200	200	87503	-56838
3769	913	200	200	87503	-56837
3770	914	200	200	87504	-56837
3771	913	200	200	87504	-56837
3772	914	200	200	87504	-56837
3773	914	200	200	87506	-56837
3774	914	200	200	87506	-56837
3775	913	200	200	87506	-56836
3776	914	200	200	87507	-56836
3777	913	200	200	87507	-56836
3778	912	200	200	87507	-56836
3779	914	200	200	87510	-56836
3780	913	200	200	87510	-56836
3781	913	200	200	87510	-56836
3782	913	200	200	87512	-56836
3783	914	200	200	87512	-56836
3784	913	200	200	87512	-56835
3785	914	200	200	87514	-56835
3786	913	200	200	87514	-56835
3787	914	200	200	87514	-56835
3788	914	200	200	87516	-56835
3789	914	200	200	87516	-56835
3790	914	200	200	87516	-56834
3791	913	200	200	87518	-56834
3792	914	200	200	87518	-56834
3793	914	200	200	87518	-56834
3794	914	200	200	87521	-56834
3795	912	200	200	87521	-56834
3796	912	200	200	87521	-56833
3797	913	200	200	87523	-56833
3798	914	200	200	87523	-56833
3799	914	200	200	87523	-56833
3800	913	200	200	87526	-56833
3801	913	200	200	87526	-56833
3802	912	200	200	87526	-56832
3803	913	200	200	87529	-56832
3804	915	200	200	87529	-56832
3805	914	200	200	87529	-56831
3806	911	200	200	87532	-56831
3807	913	200	200	87532	-56831
3808	913	200	200	87532	-56831
3809	914	200	200	87532	-56831
3810	914	200	200	87535	-56831
3811	913	200	200	87535	-56830
3812	912	200	200	87535	-56830
3813	913	200	200	87538	-56830
3814	914	200	200	87538	-56830
3815	914	200	200	87538	-56830
3816	914	200	200	87540	-56830
3817	912	200	200	87540	-56829
3818	912	200	200	87540	-56829
3819	913	200	200	87543	-56829
3820	914	200	200	87543	-56828
3821	914	200	200	87543	-56828
3822	914	200	200	87546	-56828
3823	914	200	200	87546	-56828
3824	911	200	200	87546	-56828
3825	912	200	200	87549	-56828
3826	914	200	200	87549	-56827
3827	914	200	200	87549	-56827
3828	915	200	200	87552	-56827
3829	915	200	200	87552	-56826
3830	913	200	200	87552	-56826
3831	914	200	200	87556	-56826
3832	913	200	200	87556	-56826
3833	914	200	200	87556	-56826
3834	914	200	200	87560	-56826
3835	914	200	200	87560	-56825
3836	914	200	200	87560	-56825
3837	913	200	200	87565	-56825
3838	913	200	200	87565	-56824
3839	914	200	200	87565	-56824
3840	914	200	200	87569	-56824
3841	911	200	200	87569	-56824
3842	914	200	200	87569	-56824
3843	912	200	200	87574	-56824
3844	913	200	200	87574	-56823
3845	914	200	200	87574	-56823
3846	914	200	200	87578	-56823
3847	911	200	200	87578	-56822
3848	914	200	200	87578	-56822
3849	912	200	200	87583	-56822
3850	914	200	200	87583	-56821
3851	914	200	200	87583	-56821
3852	914	200	200	87587	-56821
3853	911	200	200	87587	-56821
3854	912	200	200	87587	-56821
3855	912	200	200	87592	-56821
3856	914	200	200	87592	-56820
3857	914	200	200	87592	-56820
3858	914	200	200	87595	-56820
3859	912	200	200	87595	-56819
3860	913	200	200	87595	-56819
3861	912	200	200	87599	-56819
3862	914	200	200	87599	-56819
3863	914	200	200	87599	-56819
3864	913	200	200	87603	-56819
3865	912	200	200	87603	-56818
3866	912	200	200	87603	-56818
3867	911	200	200	87607	-56818
3868	914	200	200	87607	-56818
3869	914	200	200	87607	-56817
3870	914	200	200	87612	-56817
3871	912	200	200	87612	-56817
3872	912	200	200	87612	-56816
3873	913	200	200	87618	-56816
3874	913	200	200	87618	-56816
3875	913	200	200	87618	-56816
3876	914	200	200	87624	-56816
3877	913	200	200	87624	-56816
3878	914	200	200	87624	-56815
3879	914	200	200	87631	-56815
3880	914	200	200	87631	-56815
3881	914	200	200	87631	-56814
3882	914	200	200	87638	-56814
3883	913	200	200	87638	-56814
3884	913	200	200	87638	-56814
3885	914	200	200	87645	-56814
3886	914	200	200	87645	-56814
3887	914	200	200	87645	-56813
3888	914	200	200	87652	-56813
3889	915	200	200	87652	-56813
3890	914	200	200	87652	-56813
3891	913	200	200	87659	-56813
3892	912	200	200	87659	-56813
3893	913	200	200	87659	-56812
3894	914	200	200	87665	-56812
3895	913	200	200	87665	-56812
3896	914	200	200	87665	-56812
3897	914	200	200	87671	-56812
3898	914	200	200	87671	-56812
3899	913	200	200	87671	-56811
3900	914	200	200	87677	-56811
3901	914	200	200	87677	-56811
3902	913	200	200	87677	-56811
3903	914	200	200	87683	-56811
3904	913	200	200	87683	-56811
3905	914	200	200	87683	-56810
3906	914	200	200	87690	-56810
3907	914	200	200	87690	-56810
3908	914	200	200	87690	-56810
3909	914	200	200	87695	-56810
3910	913	200	200	87695	-56810
3911	914	200	200	87695	-56809
3912	913	200	200	87701	-56809
3913	912	200	200	87701	-56809
3914	914	200	200	87701	-56809
3915	913	200	200	87706	-56809
3916	914	200	200	87706	-56809
3917	914	200	200	87706	-56809
3918	914	200	200	87710	-56809
3919	913	200	200	87710	-56809
3920	913	200	200	87710	-56808
3921	914	200	200	87714	-56808
3922	913	200	200	87714	-56808
3923	913	200	200	87714	-56808
3924	913	200	200	87718	-56808
3925	913	200	200	87718	-56808
3926	912	200	200	87718	-56808
3927	912	200	200	87722	-56808
3928	914	200	200	87722	-56808
3929	912	200	200	87722	-56807
3930	914	200	200	87726	-56807
3931	913	200	200	87726	-56807
3932	912	200	200	87726	-56807
3933	914	200	200	87726	-56807
3934	914	200	200	87730	-56807
3935	915	200	200	87730	-56807
3936	914	200	200	87730	-56807
3937	914	200	200	87734	-56807
3938	913	200	200	87734	-56807
3939	914	200	200	87734	-56807
3940	913	200	200	87739	-56807
3941	912	200	200	87739	-56806
3942	913	200	200	87739	-56806
3943	913	200	200	87742	-56806
3944	914	200	200	87742	-56806
3945	913	200	200	87742	-56806
3946	914	200	200	87746	-56806
3947	913	200	200	87746	-56806
3948	914	200	200	87746	-56806
3949	912	200	200	87749	-56806
3950	913	200	200	87749	-56806
3951	913	200	200	87749	-56806
3952	912	200	200	87752	-56806
3953	914	200	200	87752	-56805
3954	913	200	200	87752	-56805
3955	914	200	200	87755	-56805
3956	914	200	200	87755	-56805
3957	914	200	200	87755	-56805
3958	914	200	200	87757	-56805
3959	913	200	200	87757	-56805
3960	911	200	200	87757	-56805
3961	912	200	200	87759	-56805
3962	913	200	200	87759	-56805
3963	914	200	200	87759	-56805
3964	912	200	200	87761	-56805
3965	913	200	200	87761	-56804
3966	913	200	200	87761	-56804
3967	914	200	200	87762	-56804
3968	915	200	200	87762	-56804
3969	913	200	200	87762	-56804
3970	913	200	200	87763	-56804
3971	914	200	200	87763	-56804
3972	913	200	200	87763	-56804
3973	914	200	200	87764	-56804
3974	914	200	200	87764	-56804
3975	911	200	200	87764	-56804
3976	912	200	200	87765	-56804
3977	914	200	200	87765	-56804
3978	913	200	200	87765	-56804
3979	914	200	200	87766	-56804
3980	913	200	200	87766	-56803
3981	911	200	200	87766	-56803
3982	912	200	200	87766	-56803
3983	914	200	200	87766	-56803
3984	914	200	200	87766	-56803
3985	914	200	200	87767	-56803
3986	914	200	200	87767	-56803
3987	914	200	200	87767	-56803
3988	913	200	200	87768	-56803
3989	912	200	200	87768	-56803
3990	914	200	200	87768	-56802
3991	915	200	200	87769	-56802
3992	913	200	200	87769	-56802
3993	913	200	200	87769	-56802
3994	914	200	200	87769	-56802
3995	914	200	200	87769	-56802
3996	914	200	200	87769	-56802
3997	914	200	200	87770	-56802
3998	913	200	200	87770	-56802
3999	913	200	200	87770	-56802
4000	913	0	200	87771	-56802
4001	914	0	200	87771	-56802
4002	914	0	200	87771	-56802
4003	913	0	200	87771	-56802
4004	911	0	200	87771	-56802
4005	914	0	200	87771	-56815
4006	912	0	200	87772	-56815
4007	913	0	200	87772	-56815
4008	914	0	200	87772	-56852
4009	914	0	200	87773	-56852
4010	913	0	200	87773	-56852
4011	913	0	200	87773	-56913
4012	914	0	200	87773	-56913
4013	912	0	200	87773	-56913
4014	914	0	200	87773	-57002
4015	914	0	200	87774	-57002
4016	913	0	200	87774	-57002
4017	914	0	200	87774	-57110
4018	914	0	200	87774	-57110
4019	914	0	200	87774	-57110
4020	913	0	200	87774	-57232
4021	912	0	200	87775	-57232
4022	914	0	200	87775	-57232
4023	913	0	200	87775	-57366
4024	913	0	200	87775	-57366
4025	914	0	200	87775	-57366
4026	914	0	200	87775	-57511
4027	913	0	200	87776	-57511
4028	914	0	200	87776	-57511
4029	914	0	200	87776	-57667
4030	912	0	200	87777	-57667
4031	912	0	200	87777	-57667
4032	914	0	200	87777	-57829
4033	914	0	200	87777	-57829
4034	912	0	200	87777	-57829
4035	913	0	200	87777	-57998
4036	914	0	200	87778	-57998
4037	914	0	200	87778	-57998
4038	913	0	200	87778	-58175
4039	914	0	200	87778	-58175
4040	914	0	200	87778	-58175
4041	913	0	200	87778	-58364
