0	0	0	0	35959	0
1	0	0	0	35959	0
2	0	0	0	35959	0
3	497	0	0	35959	0
4	497	0	0	35959	0
5	496	0	0	35959	0
6	496	0	0	35959	0
7	497	0	0	35959	-69927
8	497	0	0	35959	-69927
9	497	0	0	35959	-69927
10	497	200	200	35959	-69927
11	497	200	200	35959	-69927
12	496	200	200	35959	-69927
13	496	200	200	35959	-69927
14	496	200	200	35959	-69927
15	497	200	200	35973	-69927
16	496	200	200	35973	-69903
17	497	200	200	35973	-69903
18	497	200	200	35973	-69903
19	497	200	200	36013	-69852
20	496	200	200	36013	-69852
21	497	200	200	36013	-69852
22	497	200	200	36061	-69789
23	497	200	200	36061	-69789
24	497	200	200	36061	-69789
25	497	200	200	36109	-69721
26	497	200	200	36109	-69721
27	497	200	200	36109	-69721
28	497	200	200	36157	-69650
29	497	200	200	36157	-69650
30	496	200	200	36157	-69650
31	496	200	200	36206	-69576
32	496	200	200	36206	-69576
33	496	200	200	36206	-69576
34	497	200	200	36256	-69505
35	497	200	200	36256	-69505
36	496	200	200	36256	-69505
37	497	200	200	36306	-69431
38	497	200	200	36306	-69431
39	497	200	200	36306	-69431
40	496	200	200	36356	-69354
41	497	200	200	36356	-69354
42	497	200	200	36356	-69354
43	496	200	200	36405	-69278
44	496	200	200	36405	-69278
45	497	200	200	36405	-69278
46	496	200	200	36454	-69202
47	496	200	200	36454	-69202
48	497	200	200	36454	-69202
49	497	200	200	36500	-69130
50	495	200	200	36500	-69130
51	495	200	200	36500	-69130
52	497	200	200	36546	-69053
53	500	200	200	36546	-69053
54	500	200	200	36546	-69053
55	501	200	200	36596	-69053
56	501	200	200	36596	-68980
57	500	200	200	36596	-68980
58	500	200	200	36645	-68980
59	501	200	200	36645	-68903
60	499	200	200	36645	-68903
61	501	200	200	36691	-68903
62	501	200	200	36691	-68828
63	501	200	200	36691	-68828
64	501	200	200	36741	-68828
65	501	200	200	36741	-68753
66	500	200	200	36741	-68753
67	500	200	200	36788	-68753
68	500	200	200	36788	-68678
69	500	200	200	36788	-68678
70	500	200	200	36836	-68678
71	504	200	200	36836	-68605
72	505	200	200	36836	-68605
73	505	200	200	36885	-68605
74	505	200	200	36885	-68524
75	505	200	200	36885	-68524
76	505	200	200	36933	-68524
77	504	200	200	36933	-68450
78	505	200	200	36933	-68450
79	506	200	200	36983	-68450
80	506	200	200	36983	-68373
81	506	200	200	36983	-68373
82	506	200	200	37031	-68373
83	505	200	200	37031	-68295
84	506	200	200	37031	-68295
85	506	200	200	37076	-68295
86	507	200	200	37076	-68219
87	509	200	200	37076	-68219
88	509	200	200	37125	-68219
89	509	200	200	37125	-68142
90	508	200	200	37125	-68142
91	509	200	200	37175	-68142
92	508	200	200	37175	-68066
93	508	200	200	37175	-68066
94	507	200	200	37222	-68066
95	507	200	200	37222	-67985
96	508	200	200	37222	-67985
97	508	200	200	37271	-67985
98	509	200	200	37271	-67908
99	509	200	200	37271	-67908
100	512	200	200	37321	-67908
101	513	200	200	37321	-67828
102	512	200	200	37321	-67828
103	511	200	200	37373	-67828
104	513	200	200	37373	-67750
105	511	200	200	37373	-67750
106	513	200	200	37426	-67750
107	513	200	200	37426	-67672
108	512	200	200	37426	-67672
109	513	200	200	37475	-67672
110	513	200	200	37475	-67593
111	513	200	200	37475	-67593
112	514	200	200	37525	-67593
113	517	200	200	37525	-67514
114	517	200	200	37525	-67514
115	517	200	200	37577	-67514
116	517	200	200	37577	-67438
117	517	200	200	37577	-67438
118	517	200	200	37629	-67438
119	516	200	200	37629	-67360
120	517	200	200	37629	-67360
121	515	200	200	37685	-67360
122	516	200	200	37685	-67280
123	517	200	200	37685	-67280
124	516	200	200	37738	-67280
125	517	200	200	37738	-67202
126	517	200	200	37738	-67202
127	519	200	200	37795	-67202
128	521	200	200	37795	-67125
129	521	200	200	37795	-67125
130	520	200	200	37851	-67125
131	521	200	200	37851	-67048
132	521	200	200	37851	-67048
133	521	200	200	37905	-67048
134	521	200	200	37905	-66971
135	521	200	200	37905	-66971
136	520	200	200	37905	-66971
137	520	200	200	37961	-66892
138	520	200	200	37961	-66892
139	521	200	200	37961	-66892
140	521	200	200	38016	-66817
141	521	200	200	38016	-66817
142	521	200	200	38016	-66817
143	521	200	200	38071	-66738
144	521	200	200	38071	-66738
145	523	200	200	38071	-66738
146	525	200	200	38127	-66661
147	524	200	200	38127	-66661
148	524	200	200	38127	-66661
149	525	200	200	38180	-66585
150	524	200	200	38180	-66585
151	524	200	200	38180	-66585
152	524	200	200	38232	-66506
153	524	200	200	38232	-66506
154	523	200	200	38232	-66506
155	523	200	200	38285	-66430
156	525	200	200	38285	-66430
157	525	200	200	38285	-66430
158	525	200	200	38338	-66352
159	525	200	200	38338	-66352
160	524	200	200	38338	-66352
161	524	200	200	38395	-66274
162	524	200	200	38395	-66274
163	525	200	200	38395	-66274
164	525	200	200	38449	-66194
165	525	200	200	38449	-66194
166	525	200	200	38449	-66194
167	525	200	200	38502	-66118
168	526	200	200	38502	-66118
169	530	200	200	38502	-66118
170	529	200	200	38553	-66039
171	529	200	200	38553	-66039
172	528	200	200	38553	-66039
173	529	200	200	38603	-66039
174	529	200	200	38603	-65959
175	529	200	200	38603	-65959
176	529	200	200	38656	-65959
177	529	200	200	38656	-65882
178	529	200	200	38656	-65882
179	529	200	200	38708	-65882
180	529	200	200	38708	-65801
181	529	200	200	38708	-65801
182	529	200	200	38760	-65801
183	529	200	200	38760	-65725
184	529	200	200	38760	-65725
185	528	200	200	38813	-65725
186	529	200	200	38813	-65645
187	529	200	200	38813	-65645
188	529	200	200	38862	-65645
189	532	200	200	38862	-65566
190	533	200	200	38862	-65566
191	532	200	200	38913	-65566
192	532	200	200	38913	-65487
193	533	200	200	38913	-65487
194	533	200	200	38965	-65487
195	533	200	200	38965	-65411
196	533	200	200	38965	-65411
197	533	200	200	39017	-65411
198	533	200	200	39017	-65334
199	533	200	200	39017	-65334
200	534	200	200	39068	-65334
201	532	200	200	39068	-65253
202	532	200	200	39068	-65253
203	533	200	200	39114	-65253
204	533	200	200	39114	-65175
205	533	200	200	39114	-65175
206	533	200	200	39163	-65175
207	533	200	200	39163	-65097
208	536	200	200	39163	-65097
209	536	200	200	39216	-65097
210	536	200	200	39216	-65022
211	537	200	200	39216	-65022
212	537	200	200	39263	-65022
213	537	200	200	39263	-64943
214	536	200	200	39263	-64943
215	536	200	200	39313	-64943
216	536	200	200	39313	-64865
217	536	200	200	39313	-64865
218	537	200	200	39363	-64865
219	536	200	200	39363	-64788
220	537	200	200	39363	-64788
221	537	200	200	39415	-64788
222	537	200	200	39415	-64710
223	539	200	200	39415	-64710
224	541	200	200	39468	-64710
225	541	200	200	39468	-64634
226	541	200	200	39468	-64634
227	541	200	200	39516	-64634
228	541	200	200	39516	-64556
229	540	200	200	39516	-64556
230	540	200	200	39564	-64556
231	539	200	200	39564	-64480
232	540	200	200	39564	-64480
233	541	200	200	39614	-64480
234	541	200	200	39614	-64401
235	541	200	200	39614	-64401
236	541	200	200	39664	-64401
237	541	200	200	39664	-64325
238	543	200	200	39664	-64325
239	544	200	200	39717	-64325
240	544	200	200	39717	-64247
241	545	200	200	39717	-64247
242	545	200	200	39770	-64247
243	545	200	200	39770	-64166
244	545	200	200	39770	-64166
245	546	200	200	39822	-64166
246	544	200	200	39822	-64092
247	545	200	200	39822	-64092
248	545	200	200	39822	-64092
249	545	200	200	39875	-64012
250	545	200	200	39875	-64012
251	545	200	200	39875	-64012
252	545	200	200	39928	-63935
253	545	200	200	39928	-63935
254	549	200	200	39928	-63935
255	549	200	200	39982	-63855
256	549	200	200	39982	-63855
257	549	200	200	39982	-63855
258	549	200	200	40037	-63774
259	549	200	200	40037	-63774
260	549	200	200	40037	-63774
261	549	200	200	40092	-63697
262	548	200	200	40092	-63697
263	548	200	200	40092	-63697
264	550	200	200	40147	-63618
265	549	200	200	40147	-63618
266	549	200	200	40147	-63618
267	549	200	200	40202	-63539
268	549	200	200	40202	-63539
269	549	200	200	40202	-63539
270	549	200	200	40255	-63459
271	553	200	200	40255	-63459
272	553	200	200	40255	-63459
273	553	200	200	40309	-63381
274	553	200	200	40309	-63381
275	553	200	200	40309	-63381
276	553	200	200	40364	-63305
277	553	200	200	40364	-63305
278	553	200	200	40364	-63305
279	552	200	200	40420	-63226
280	553	200	200	40420	-63226
281	552	200	200	40420	-63226
282	553	200	200	40477	-63145
283	553	200	200	40477	-63145
284	553	200	200	40477	-63145
285	553	200	200	40531	-63066
286	553	200	200	40531	-63066
287	553	200	200	40531	-63066
288	556	200	200	40586	-62991
289	557	200	200	40586	-62991
290	557	200	200	40586	-62991
291	557	200	200	40638	-62991
292	557	200	200	40638	-62911
293	557	200	200	40638	-62911
294	555	200	200	40694	-62911
295	556	200	200	40694	-62835
296	557	200	200	40694	-62835
297	556	200	200	40749	-62835
298	557	200	200	40749	-62756
299	557	200	200	40749	-62756
300	557	200	200	40803	-62756
301	555	200	200	40803	-62679
302	557	200	200	40803	-62679
303	557	200	200	40860	-62679
304	559	200	200	40860	-62602
305	561	200	200	40860	-62602
306	561	200	200	40912	-62602
307	561	200	200	40912	-62524
308	560	200	200	40912	-62524
309	560	200	200	40967	-62524
310	561	200	200	40967	-62449
311	561	200	200	40967	-62449
312	561	200	200	41021	-62449
313	561	200	200	41021	-62368
314	561	200	200	41021	-62368
315	561	200	200	41076	-62368
316	560	200	200	41076	-62293
317	561	200	200	41076	-62293
318	560	200	200	41129	-62293
319	561	200	200	41129	-62214
320	561	200	200	41129	-62214
321	563	200	200	41179	-62214
322	565	200	200	41179	-62134
323	564	200	200	41179	-62134
324	565	200	200	41235	-62134
325	564	200	200	41235	-62058
326	564	200	200	41235	-62058
327	565	200	200	41286	-62058
328	564	200	200	41286	-61978
329	564	200	200	41286	-61978
330	565	200	200	41337	-61978
331	565	200	200	41337	-61901
332	565	200	200	41337	-61901
333	565	200	200	41391	-61901
334	565	200	200	41391	-61820
335	565	200	200	41391	-61820
336	565	200	200	41444	-61820
337	565	200	200	41444	-61740
338	564	200	200	41444	-61740
339	568	200	200	41499	-61740
340	569	200	200	41499	-61662
341	569	200	200	41499	-61662
342	568	200	200	41549	-61662
343	569	200	200	41549	-61583
344	569	200	200	41549	-61583
345	568	200	200	41599	-61583
346	569	200	200	41599	-61505
347	569	200	200	41599	-61505
348	569	200	200	41653	-61505
349	568	200	200	41653	-61424
350	569	200	200	41653	-61424
351	569	200	200	41704	-61424
352	569	200	200	41704	-61347
353	569	200	200	41704	-61347
354	569	200	200	41756	-61347
355	569	200	200	41756	-61271
356	572	200	200	41756	-61271
357	573	200	200	41810	-61271
358	573	200	200	41810	-61193
359	573	200	200	41810	-61193
360	573	200	200	41862	-61193
361	573	200	200	41862	-61113
362	572	200	200	41862	-61113
363	573	200	200	41918	-61113
364	573	200	200	41918	-61034
365	573	200	200	41918	-61034
366	573	200	200	41972	-61034
367	573	200	200	41972	-60960
368	573	200	200	41972	-60960
369	572	200	200	42027	-60960
370	573	200	200	42027	-60881
371	573	200	200	42027	-60881
372	575	200	200	42027	-60881
373	577	200	200	42082	-60806
374	576	200	200	42082	-60806
375	577	200	200	42082	-60806
376	577	200	200	42137	-60726
377	577	200	200	42137	-60726
378	577	200	200	42137	-60726
379	577	200	200	42192	-60650
380	576	200	200	42192	-60650
381	576	200	200	42192	-60650
382	578	200	200	42247	-60574
383	577	200	200	42247	-60574
384	578	200	200	42247	-60574
385	577	200	200	42301	-60497
386	578	200	200	42301	-60497
387	577	200	200	42301	-60497
388	577	200	200	42355	-60423
389	577	200	200	42355	-60423
390	580	200	200	42355	-60423
391	581	200	200	42410	-60342
392	581	200	200	42410	-60342
393	582	200	200	42410	-60342
394	580	200	200	42465	-60266
395	582	200	200	42465	-60266
396	582	200	200	42465	-60266
397	581	200	200	42522	-60188
398	581	200	200	42522	-60188
399	581	200	200	42522	-60188
400	582	200	200	42576	-60109
401	580	200	200	42576	-60109
402	582	200	200	42576	-60109
403	582	200	200	42631	-60032
404	582	200	200	42631	-60032
405	581	200	200	42631	-60032
406	585	200	200	42683	-59955
407	585	200	200	42683	-59955
408	584	200	200	42683	-59955
409	584	200	200	42740	-59955
410	585	200	200	42740	-59879
411	585	200	200	42740	-59879
412	585	200	200	42794	-59879
413	585	200	200	42794	-59798
414	586	200	200	42794	-59798
415	585	200	200	42848	-59798
416	585	200	200	42848	-59721
417	585	200	200	42848	-59721
418	585	200	200	42904	-59721
419	585	200	200	42904	-59642
420	585	200	200	42904	-59642
421	587	200	200	42955	-59642
422	589	200	200	42955	-59565
423	589	200	200	42955	-59565
424	589	200	200	43009	-59565
425	589	200	200	43009	-59488
426	589	200	200	43009	-59488
427	589	200	200	43063	-59488
428	589	200	200	43063	-59409
429	589	200	200	43063	-59409
430	589	200	200	43118	-59409
431	589	200	200	43118	-59330
432	589	200	200	43118	-59330
433	589	200	200	43171	-59330
434	589	200	200	43171	-59255
435	588	200	200	43171	-59255
436	588	200	200	43222	-59255
437	591	200	200	43222	-59178
438	593	200	200	43222	-59178
439	594	200	200	43278	-59178
440	593	200	200	43278	-59098
441	594	200	200	43278	-59098
442	593	200	200	43331	-59098
443	594	200	200	43331	-59021
444	594	200	200	43331	-59021
445	593	200	200	43383	-59021
446	593	200	200	43383	-58944
447	594	200	200	43383	-58944
448	593	200	200	43438	-58944
449	593	200	200	43438	-58869
450	594	200	200	43438	-58869
451	593	200	200	43492	-58869
452	593	200	200	43492	-58792
453	597	200	200	43492	-58792
454	598	200	200	43547	-58792
455	598	200	200	43547	-58714
456	597	200	200	43547	-58714
457	597	200	200	43599	-58714
458	596	200	200	43599	-58638
459	597	200	200	43599	-58638
460	597	200	200	43650	-58638
461	597	200	200	43650	-58561
462	597	200	200	43650	-58561
463	597	200	200	43706	-58561
464	598	200	200	43706	-58486
465	597	200	200	43706	-58486
466	597	200	200	43758	-58486
467	597	200	200	43758	-58410
468	597	200	200	43758	-58410
469	597	200	200	43813	-58410
470	600	200	200	43813	-58335
471	600	200	200	43813	-58335
472	602	200	200	43868	-58335
473	600	200	200	43868	-58256
474	601	200	200	43868	-58256
475	601	200	200	43922	-58256
476	601	200	200	43922	-58180
477	602	200	200	43922	-58180
478	600	200	200	43979	-58180
479	602	200	200	43979	-58103
480	601	200	200	43979	-58103
481	601	200	200	44034	-58103
482	601	200	200	44034	-58023
483	601	200	200	44034	-58023
484	602	200	200	44091	-58023
485	601	200	200	44091	-57949
486	605	200	200	44091	-57949
487	604	200	200	44147	-57949
488	605	200	200	44147	-57870
489	605	200	200	44147	-57870
490	605	200	200	44147	-57870
491	605	200	200	44205	-57794
492	605	200	200	44205	-57794
493	605	200	200	44205	-57794
494	605	200	200	44262	-57715
495	605	200	200	44262	-57715
496	604	200	200	44262	-57715
497	605	200	200	44319	-57636
498	605	200	200	44319	-57636
499	605	200	200	44319	-57636
500	605	200	200	44373	-57560
501	605	200	200	44373	-57560
502	608	200	200	44373	-57560
503	609	200	200	44428	-57482
504	609	200	200	44428	-57482
505	609	200	200	44428	-57482
506	610	200	200	44484	-57404
507	609	200	200	44484	-57404
508	610	200	200	44484	-57404
509	609	200	200	44542	-57325
510	609	200	200	44542	-57325
511	609	200	200	44542	-57325
512	609	200	200	44598	-57249
513	609	200	200	44598	-57249
514	609	200	200	44598	-57249
515	609	200	200	44655	-57174
516	609	200	200	44655	-57174
517	609	200	200	44655	-57174
518	613	200	200	44710	-57096
519	612	200	200	44710	-57096
520	613	200	200	44710	-57096
521	613	200	200	44764	-57017
522	613	200	200	44764	-57017
523	613	200	200	44764	-57017
524	613	200	200	44821	-56940
525	613	200	200	44821	-56940
526	613	200	200	44821	-56940
527	613	200	200	44874	-56940
528	613	200	200	44874	-56866
529	613	200	200	44874	-56866
530	613	200	200	44930	-56866
531	613	200	200	44930	-56789
532	613	200	200	44930	-56789
533	617	200	200	44985	-56789
534	617	200	200	44985	-56715
535	617	200	200	44985	-56715
536	617	200	200	45041	-56715
537	618	200	200	45041	-56636
538	617	200	200	45041	-56636
539	617	200	200	45097	-56636
540	617	200	200	45097	-56562
541	617	200	200	45097	-56562
542	617	200	200	45153	-56562
543	617	200	200	45153	-56486
544	617	200	200	45153	-56486
545	617	200	200	45208	-56486
546	617	200	200	45208	-56410
547	618	200	200	45208	-56410
548	622	200	200	45259	-56410
549	620	200	200	45259	-56336
550	621	200	200	45259	-56336
551	621	200	200	45315	-56336
552	621	200	200	45315	-56258
553	621	200	200	45315	-56258
554	620	200	200	45372	-56258
555	622	200	200	45372	-56183
556	621	200	200	45372	-56183
557	621	200	200	45424	-56183
558	621	200	200	45424	-56107
559	621	200	200	45424	-56107
560	621	200	200	45479	-56107
561	620	200	200	45479	-56030
562	622	200	200	45479	-56030
563	624	200	200	45532	-56030
564	625	200	200	45532	-55952
565	625	200	200	45532	-55952
566	625	200	200	45588	-55952
567	624	200	200	45588	-55878
568	624	200	200	45588	-55878
569	626	200	200	45641	-55878
570	625	200	200	45641	-55801
571	626	200	200	45641	-55801
572	625	200	200	45692	-55801
573	625	200	200	45692	-55723
574	624	200	200	45692	-55723
575	625	200	200	45749	-55723
576	625	200	200	45749	-55647
577	625	200	200	45749	-55647
578	626	200	200	45801	-55647
579	630	200	200	45801	-55568
580	629	200	200	45801	-55568
581	629	200	200	45856	-55568
582	628	200	200	45856	-55493
583	629	200	200	45856	-55493
584	629	200	200	45911	-55493
585	629	200	200	45911	-55415
586	629	200	200	45911	-55415
587	629	200	200	45965	-55415
588	629	200	200	45965	-55338
589	627	200	200	45965	-55338
590	629	200	200	46021	-55338
591	630	200	200	46021	-55260
592	629	200	200	46021	-55260
593	630	200	200	46075	-55260
594	632	200	200	46075	-55186
595	634	200	200	46075	-55186
596	632	200	200	46132	-55186
597	632	200	200	46132	-55111
598	633	200	200	46132	-55111
599	634	200	200	46188	-55111
600	633	200	200	46188	-55034
601	633	200	200	46188	-55034
602	633	200	200	46245	-55034
603	634	200	200	46245	-54955
604	633	200	200	46245	-54955
605	634	200	200	46302	-54955
606	633	200	200	46302	-54878
607	634	200	200	46302	-54878
608	633	200	200	46302	-54878
609	637	200	200	46358	-54806
610	637	200	200	46358	-54806
611	637	200	200	46358	-54806
612	637	200	200	46412	-54729
613	637	200	200	46412	-54729
614	637	200	200	46412	-54729
615	637	200	200	46468	-54656
616	638	200	200	46468	-54656
617	637	200	200	46468	-54656
618	638	200	200	46525	-54578
619	637	200	200	46525	-54578
620	637	200	200	46525	-54578
621	637	200	200	46584	-54503
622	637	200	200	46584	-54503
623	637	200	200	46584	-54503
624	637	200	200	46642	-54428
625	640	200	200	46642	-54428
626	641	200	200	46642	-54428
627	642	200	200	46700	-54354
628	641	200	200	46700	-54354
629	642	200	200	46700	-54354
630	642	200	200	46756	-54282
631	642	200	200	46756	-54282
632	641	200	200	46756	-54282
633	641	200	200	46812	-54203
634	642	200	200	46812	-54203
635	641	200	200	46812	-54203
636	641	200	200	46872	-54130
637	641	200	200	46872	-54130
638	642	200	200	46872	-54130
639	641	200	200	46926	-54054
640	642	200	200	46926	-54054
641	646	200	200	46926	-54054
642	645	200	200	46985	-53978
643	646	200	200	46985	-53978
644	645	200	200	46985	-53978
645	646	200	200	47041	-53978
646	645	200	200	47041	-53902
647	645	200	200	47041	-53902
648	646	200	200	47098	-53902
649	645	200	200	47098	-53828
650	646	200	200	47098	-53828
651	646	200	200	47156	-53828
652	646	200	200	47156	-53752
653	646	200	200	47156	-53752
654	645	200	200	47214	-53752
655	645	200	200	47214	-53675
656	647	200	200	47214	-53675
657	650	200	200	47270	-53675
658	650	200	200	47270	-53599
659	650	200	200	47270	-53599
660	650	200	200	47323	-53599
661	649	200	200	47323	-53521
662	649	200	200	47323	-53521
663	650	200	200	47382	-53521
664	649	200	200	47382	-53447
665	650	200	200	47382	-53447
666	650	200	200	47437	-53447
667	649	200	200	47437	-53371
668	650	200	200	47437	-53371
669	649	200	200	47493	-53371
670	650	200	200	47493	-53295
671	649	200	200	47493	-53295
672	653	200	200	47550	-53295
673	654	200	200	47550	-53218
674	654	200	200	47550	-53218
675	654	200	200	47606	-53218
676	653	200	200	47606	-53143
677	654	200	200	47606	-53143
678	652	200	200	47664	-53143
679	654	200	200	47664	-53070
680	654	200	200	47664	-53070
681	654	200	200	47718	-53070
682	654	200	200	47718	-52994
683	654	200	200	47718	-52994
684	653	200	200	47773	-52994
685	654	200	200	47773	-52917
686	653	200	200	47773	-52917
687	653	200	200	47829	-52917
688	658	200	200	47829	-52840
689	657	200	200	47829	-52840
690	658	200	200	47884	-52840
691	658	200	200	47884	-52769
692	658	200	200	47884	-52769
693	656	200	200	47941	-52769
694	658	200	200	47941	-52693
695	658	200	200	47941	-52693
696	658	200	200	47997	-52693
697	658	200	200	47997	-52620
698	658	200	200	47997	-52620
699	658	200	200	48056	-52620
700	657	200	200	48056	-52543
701	658	200	200	48056	-52543
702	658	200	200	48113	-52543
703	659	200	200	48113	-52471
704	661	200	200	48113	-52471
705	662	200	200	48171	-52471
706	662	200	200	48171	-52395
707	662	200	200	48171	-52395
708	662	200	200	48229	-52395
709	661	200	200	48229	-52322
710	661	200	200	48229	-52322
711	661	200	200	48287	-52322
712	662	200	200	48287	-52248
713	661	200	200	48287	-52248
714	661	200	200	48346	-52248
715	661	200	200	48346	-52174
716	661	200	200	48346	-52174
717	661	200	200	48405	-52174
718	661	200	200	48405	-52100
719	662	200	200	48405	-52100
720	666	200	200	48461	-52100
721	666	200	200	48461	-52026
722	665	200	200	48461	-52026
723	665	200	200	48519	-52026
724	666	200	200	48519	-51951
725	666	200	200	48519	-51951
726	666	200	200	48519	-51951
727	666	200	200	48578	-51874
728	665	200	200	48578	-51874
729	665	200	200	48578	-51874
730	666	200	200	48638	-51804
731	665	200	200	48638	-51804
732	666	200	200	48638	-51804
733	666	200	200	48697	-51728
734	666	200	200	48697	-51728
735	666	200	200	48697	-51728
736	666	200	200	48756	-51655
737	668	200	200	48756	-51655
738	670	200	200	48756	-51655
739	669	200	200	48813	-51579
740	670	200	200	48813	-51579
741	670	200	200	48813	-51579
742	670	200	200	48872	-51505
743	670	200	200	48872	-51505
744	670	200	200	48872	-51505
745	670	200	200	48930	-51431
746	670	200	200	48930	-51431
747	668	200	200	48930	-51431
748	670	200	200	48984	-51358
749	669	200	200	48984	-51358
750	670	200	200	48984	-51358
751	670	200	200	49043	-51285
752	670	200	200	49043	-51285
753	670	200	200	49043	-51285
754	670	200	200	49097	-51211
755	668	200	200	49097	-51211
756	670	200	200	49097	-51211
757	673	200	200	49153	-51138
758	674	200	200	49153	-51138
759	675	200	200	49153	-51138
760	674	200	200	49210	-51068
761	674	200	200	49210	-51068
762	675	200	200	49210	-51068
763	675	200	200	49266	-51068
764	675	200	200	49266	-50997
765	675	200	200	49266	-50997
766	675	200	200	49319	-50997
767	674	200	200	49319	-50923
768	674	200	200	49319	-50923
769	674	200	200	49369	-50923
770	675	200	200	49369	-50852
771	674	200	200	49369	-50852
772	674	200	200	49425	-50852
773	674	200	200	49425	-50780
774	673	200	200	49425	-50780
775	672	200	200	49475	-50780
776	674	200	200	49475	-50713
777	673	200	200	49475	-50713
778	674	200	200	49525	-50713
779	674	200	200	49525	-50642
780	675	200	200	49525	-50642
781	675	200	200	49578	-50642
782	674	200	200	49578	-50575
783	674	200	200	49578	-50575
784	673	200	200	49628	-50575
785	673	200	200	49628	-50504
786	673	200	200	49628	-50504
787	676	200	200	49680	-50504
788	677	200	200	49680	-50439
789	678	200	200	49680	-50439
790	678	200	200	49729	-50439
791	678	200	200	49729	-50370
792	678	200	200	49729	-50370
793	678	200	200	49775	-50370
794	678	200	200	49775	-50305
795	678	200	200	49775	-50305
796	678	200	200	49825	-50305
797	678	200	200	49825	-50238
798	678	200	200	49825	-50238
799	678	200	200	49873	-50238
800	678	200	200	49873	-50176
801	678	200	200	49873	-50176
802	677	200	200	49919	-50176
803	677	200	200	49919	-50107
804	677	200	200	49919	-50107
805	676	200	200	49971	-50107
806	678	200	200	49971	-50043
807	678	200	200	49971	-50043
808	678	200	200	50019	-50043
809	678	200	200	50019	-49978
810	678	200	200	50019	-49978
811	678	200	200	50067	-49978
812	678	200	200	50067	-49915
813	678	200	200	50067	-49915
814	678	200	200	50116	-49915
815	678	200	200	50116	-49850
816	677	200	200	50116	-49850
817	678	200	200	50162	-49850
818	678	200	200	50162	-49789
819	677	200	200	50162	-49789
820	677	200	200	50210	-49789
821	678	200	200	50210	-49728
822	678	200	200	50210	-49728
823	678	200	200	50258	-49728
824	678	200	200	50258	-49666
825	678	200	200	50258	-49666
826	678	200	200	50305	-49666
827	678	200	200	50305	-49606
828	678	200	200	50305	-49606
829	678	200	200	50353	-49606
830	680	200	200	50353	-49544
831	681	200	200	50353	-49544
832	682	200	200	50353	-49544
833	682	200	200	50399	-49485
834	682	200	200	50399	-49485
835	683	200	200	50399	-49485
836	682	200	200	50444	-49423
837	682	200	200	50444	-49423
838	682	200	200	50444	-49423
839	681	200	200	50488	-49365
840	682	200	200	50488	-49365
841	682	200	200	50488	-49365
842	682	200	200	50531	-49305
843	682	200	200	50531	-49305
844	682	200	200	50531	-49305
845	682	200	200	50575	-49248
846	682	200	200	50575	-49248
847	681	200	200	50575	-49248
848	682	200	200	50618	-49190
849	683	200	200	50618	-49190
850	681	200	200	50618	-49190
851	682	200	200	50664	-49133
852	682	200	200	50664	-49133
853	682	200	200	50664	-49133
854	681	200	200	50709	-49077
855	682	200	200	50709	-49077
856	683	200	200	50709	-49077
857	683	200	200	50752	-49024
858	681	200	200	50752	-49024
859	682	200	200	50752	-49024
860	682	200	200	50798	-48969
861	682	200	200	50798	-48969
862	681	200	200	50798	-48969
863	683	200	200	50840	-48915
864	681	200	200	50840	-48915
865	681	200	200	50840	-48915
866	682	200	200	50881	-48915
867	682	200	200	50881	-48859
868	681	200	200	50881	-48859
869	681	200	200	50927	-48859
870	682	200	200	50927	-48806
871	682	200	200	50927	-48806
872	682	200	200	50971	-48806
873	682	200	200	50971	-48753
874	682	200	200	50971	-48753
875	683	200	200	51011	-48753
876	680	200	200	51011	-48703
877	681	200	200	51011	-48703
878	682	200	200	51055	-48703
879	683	200	200	51055	-48654
880	681	200	200	51055	-48654
881	680	200	200	51099	-48654
882	682	200	200	51099	-48603
883	682	200	200	51099	-48603
884	683	200	200	51139	-48603
885	682	200	200	51139	-48553
886	682	200	200	51139	-48553
887	683	200	200	51182	-48553
888	682	200	200	51182	-48505
889	682	200	200	51182	-48505
890	682	200	200	51225	-48505
891	682	200	200	51225	-48454
892	682	200	200	51225	-48454
893	682	200	200	51267	-48454
894	682	200	200	51267	-48408
895	683	200	200	51267	-48408
896	683	200	200	51310	-48408
897	682	200	200	51310	-48360
898	681	200	200	51310	-48360
899	681	200	200	51351	-48360
900	680	200	200	51351	-48314
901	682	200	200	51351	-48314
902	683	200	200	51390	-48314
903	683	200	200	51390	-48269
904	682	200	200	51390	-48269
905	682	200	200	51429	-48269
906	682	200	200	51429	-48222
907	682	200	200	51429	-48222
908	683	200	200	51472	-48222
909	682	200	200	51472	-48176
910	682	200	200	51472	-48176
911	681	200	200	51513	-48176
912	680	200	200	51513	-48134
913	682	200	200	51513	-48134
914	682	200	200	51552	-48134
915	682	200	200	51552	-48089
916	681	200	200	51552	-48089
917	682	200	200	51593	-48089
918	683	200	200	51593	-48041
919	683	200	200	51593	-48041
920	682	200	200	51634	-48041
921	682	200	200	51634	-47999
922	682	200	200	51634	-47999
923	682	200	200	51675	-47999
924	681	200	200	51675	-47954
925	682	200	200	51675	-47954
926	681	200	200	51715	-47954
927	682	200	200	51715	-47909
928	682	200	200	51715	-47909
929	681	200	200	51757	-47909
930	682	200	200	51757	-47864
931	682	200	200	51757	-47864
932	683	200	200	51793	-47864
933	683	200	200	51793	-47818
934	681	200	200	51793	-47818
935	682	200	200	51830	-47818
936	683	200	200	51830	-47773
937	682	200	200	51830	-47773
938	681	200	200	51869	-47773
939	682	200	200	51869	-47732
940	682	200	200	51869	-47732
941	681	200	200	51909	-47732
942	682	200	200	51909	-47689
943	682	200	200	51909	-47689
944	682	200	200	51947	-47689
945	682	200	200	51947	-47644
946	682	200	200	51947	-47644
947	682	200	200	51985	-47644
948	682	200	200	51985	-47602
949	682	200	200	51985	-47602
950	682	200	200	51985	-47602
951	682	200	200	52026	-47560
952	681	200	200	52026	-47560
953	682	200	200	52026	-47560
954	681	200	200	52065	-47516
955	682	200	200	52065	-47516
956	683	200	200	52065	-47516
957	682	200	200	52105	-47474
958	682	200	200	52105	-47474
959	683	200	200	52105	-47474
960	681	200	200	52147	-47432
961	682	200	200	52147	-47432
962	682	200	200	52147	-47432
963	681	200	200	52187	-47388
964	682	200	200	52187	-47388
965	682	200	200	52187	-47388
966	682	200	200	52224	-47347
967	683	200	200	52224	-47347
968	680	200	200	52224	-47347
969	681	200	200	52265	-47307
970	682	200	200	52265	-47307
971	682	200	200	52265	-47307
972	682	200	200	52304	-47264
973	682	200	200	52304	-47264
974	682	200	200	52304	-47264
975	681	200	200	52344	-47222
976	682	200	200	52344	-47222
977	682	200	200	52344	-47222
978	683	200	200	52385	-47181
979	682	200	200	52385	-47181
980	682	200	200	52385	-47181
981	682	200	200	52425	-47181
982	682	200	200	52425	-47139
983	682	200	200	52425	-47139
984	682	200	200	52465	-47139
985	680	200	200	52465	-47097
986	677	200	200	52465	-47097
987	678	200	200	52504	-47097
988	678	200	200	52504	-47056
989	679	200	200	52504	-47056
990	678	200	200	52541	-47056
991	678	200	200	52541	-47016
992	678	200	200	52541	-47016
993	678	200	200	52580	-47016
994	678	200	200	52580	-46976
995	678	200	200	52580	-46976
996	678	200	200	52619	-46976
997	678	200	200	52619	-46934
998	678	200	200	52619	-46934
999	677	200	200	52659	-46934
1000	678	200	200	52659	-46892
1001	678	200	200	52659	-46892
1002	678	200	200	52700	-46892
1003	678	200	200	52700	-46851
1004	678	200	200	52700	-46851
1005	678	200	200	52740	-46851
1006	677	200	200	52740	-46810
1007	678	200	200	52740	-46810
1008	678	200	200	52780	-46810
1009	679	200	200	52780	-46771
1010	677	200	200	52780	-46771
1011	678	200	200	52819	-46771
1012	678	200	200	52819	-46732
1013	678	200	200	52819	-46732
1014	678	200	200	52858	-46732
1015	679	200	200	52858	-46693
1016	678	200	200	52858	-46693
1017	678	200	200	52897	-46693
1018	678	200	200	52897	-46656
1019	678	200	200	52897	-46656
1020	678	200	200	52933	-46656
1021	679	200	200	52933	-46619
1022	678	200	200	52933	-46619
1023	678	200	200	52973	-46619
1024	678	200	200	52973	-46580
1025	679	200	200	52973	-46580
1026	678	200	200	53012	-46580
1027	679	200	200	53012	-46540
1028	677	200	200	53012	-46540
1029	677	200	200	53048	-46540
1030	678	200	200	53048	-46504
1031	678	200	200	53048	-46504
1032	678	200	200	53085	-46504
1033	678	200	200	53085	-46467
1034	678	200	200	53085	-46467
1035	677	200	200	53122	-46467
1036	677	200	200	53122	-46426
1037	678	200	200	53122	-46426
1038	678	200	200	53160	-46426
1039	678	200	200	53160	-46387
1040	678	200	200	53160	-46387
1041	678	200	200	53194	-46387
1042	678	200	200	53194	-46350
1043	677	200	200	53194	-46350
1044	678	200	200	53231	-46350
1045	678	200	200	53231	-46311
1046	677	200	200	53231	-46311
1047	677	200	200	53268	-46311
1048	678	200	200	53268	-46272
1049	678	200	200	53268	-46272
1050	677	200	200	53304	-46272
1051	678	200	200	53304	-46233
1052	678	200	200	53304	-46233
1053	679	200	200	53341	-46233
1054	678	200	200	53341	-46195
1055	678	200	200	53341	-46195
1056	679	200	200	53375	-46195
1057	678	200	200	53375	-46157
1058	677	200	200	53375	-46157
1059	678	200	200	53409	-46157
1060	678	200	200	53409	-46120
1061	677	200	200	53409	-46120
1062	679	200	200	53441	-46120
1063	677	200	200	53441	-46085
1064	678	200	200	53441	-46085
1065	678	200	200	53474	-46085
1066	678	200	200	53474	-46047
1067	678	200	200	53474	-46047
1068	678	200	200	53474	-46047
1069	678	200	200	53510	-46008
1070	678	200	200	53510	-46008
1071	677	200	200	53510	-46008
1072	677	200	200	53546	-45971
1073	678	200	200	53546	-45971
1074	677	200	200	53546	-45971
1075	678	200	200	53576	-45935
1076	678	200	200	53576	-45935
1077	678	200	200	53576	-45935
1078	675	200	200	53609	-45898
1079	674	200	200	53609	-45898
1080	674	200	200	53609	-45898
1081	675	200	200	53643	-45861
1082	674	200	200	53643	-45861
1083	675	200	200	53643	-45861
1084	674	200	200	53677	-45825
1085	675	200	200	53677	-45825
1086	675	200	200	53677	-45825
1087	675	200	200	53708	-45789
1088	674	200	200	53708	-45789
1089	674	200	200	53708	-45789
1090	673	200	200	53741	-45752
1091	674	200	200	53741	-45752
1092	674	200	200	53741	-45752
1093	674	200	200	53774	-45716
1094	674	200	200	53774	-45716
1095	674	200	200	53774	-45716
1096	674	200	200	53807	-45684
1097	675	200	200	53807	-45684
1098	675	200	200	53807	-45684
1099	675	200	200	53837	-45650
1100	673	200	200	53837	-45650
1101	673	200	200	53837	-45650
1102	674	200	200	53869	-45612
1103	674	200	200	53869	-45612
1104	674	200	200	53869	-45612
1105	674	200	200	53902	-45612
1106	674	200	200	53902	-45577
1107	674	200	200	53902	-45577
1108	675	200	200	53935	-45577
1109	674	200	200	53935	-45544
1110	675	200	200	53935	-45544
1111	674	200	200	53966	-45544
1112	675	200	200	53966	-45509
1113	673	200	200	53966	-45509
1114	673	200	200	53998	-45509
1115	675	200	200	53998	-45473
1116	674	200	200	53998	-45473
1117	674	200	200	54031	-45473
1118	673	200	200	54031	-45439
1119	674	200	200	54031	-45439
1120	675	200	200	54064	-45439
1121	674	200	200	54064	-45405
1122	674	200	200	54064	-45405
1123	674	200	200	54095	-45405
1124	674	200	200	54095	-45370
1125	674	200	200	54095	-45370
1126	673	200	200	54129	-45370
1127	674	200	200	54129	-45334
1128	673	200	200	54129	-45334
1129	673	200	200	54164	-45334
1130	674	200	200	54164	-45299
1131	675	200	200	54164	-45299
1132	675	200	200	54200	-45299
1133	674	200	200	54200	-45266
1134	674	200	200	54200	-45266
1135	674	200	200	54235	-45266
1136	673	200	200	54235	-45230
1137	674	200	200	54235	-45230
1138	674	200	200	54267	-45230
1139	673	200	200	54267	-45194
1140	675	200	200	54267	-45194
1141	674	200	200	54302	-45194
1142	674	200	200	54302	-45160
1143	674	200	200	54302	-45160
1144	675	200	200	54338	-45160
1145	674	200	200	54338	-45127
1146	674	200	200	54338	-45127
1147	675	200	200	54373	-45127
1148	674	200	200	54373	-45092
1149	674	200	200	54373	-45092
1150	674	200	200	54406	-45092
1151	675	200	200	54406	-45057
1152	673	200	200	54406	-45057
1153	674	200	200	54441	-45057
1154	671	200	200	54441	-45023
1155	669	200	200	54441	-45023
1156	669	200	200	54475	-45023
1157	670	200	200	54475	-44990
1158	669	200	200	54475	-44990
1159	669	200	200	54510	-44990
1160	670	200	200	54510	-44956
1161	669	200	200	54510	-44956
1162	669	200	200	54543	-44956
1163	670	200	200	54543	-44924
1164	670	200	200	54543	-44924
1165	669	200	200	54577	-44924
1166	670	200	200	54577	-44890
1167	670	200	200	54577	-44890
1168	669	200	200	54609	-44890
1169	670	200	200	54609	-44857
1170	670	200	200	54609	-44857
1171	669	200	200	54643	-44857
1172	670	200	200	54643	-44825
1173	670	200	200	54643	-44825
1174	669	200	200	54678	-44825
1175	670	200	200	54678	-44794
1176	670	200	200	54678	-44794
1177	669	200	200	54711	-44794
1178	670	200	200	54711	-44762
1179	670	200	200	54711	-44762
1180	669	200	200	54711	-44762
1181	670	200	200	54746	-44731
1182	668	200	200	54746	-44731
1183	670	200	200	54746	-44731
1184	670	200	200	54780	-44701
1185	669	200	200	54780	-44701
1186	669	200	200	54780	-44701
1187	670	200	200	54815	-44670
1188	668	200	200	54815	-44670
1189	670	200	200	54815	-44670
1190	670	200	200	54848	-44639
1191	668	200	200	54848	-44639
1192	671	200	200	54848	-44639
1193	670	200	200	54884	-44610
1194	669	200	200	54884	-44610
1195	670	200	200	54884	-44610
1196	671	200	200	54918	-44581
1197	670	200	200	54918	-44581
1198	670	200	200	54918	-44581
1199	671	200	200	54952	-44552
1200	670	200	200	54952	-44552
1201	670	200	200	54952	-44552
1202	670	200	200	54985	-44520
1203	669	200	200	54985	-44520
1204	669	200	200	54985	-44520
1205	669	200	200	55021	-44491
1206	669	200	200	55021	-44491
1207	669	200	200	55021	-44491
1208	669	200	200	55054	-44463
1209	670	200	200	55054	-44463
1210	671	200	200	55054	-44463
1211	670	200	200	55085	-44435
1212	670	200	200	55085	-44435
1213	670	200	200	55085	-44435
1214	670	200	200	55116	-44406
1215	671	200	200	55116	-44406
1216	668	200	200	55116	-44406
1217	669	200	200	55151	-44375
1218	670	200	200	55151	-44375
1219	670	200	200	55151	-44375
1220	670	200	200	55185	-44344
1221	668	200	200	55185	-44344
1222	670	200	200	55185	-44344
1223	670	200	200	55218	-44344
1224	670	200	200	55218	-44315
1225	670	200	200	55218	-44315
1226	670	200	200	55251	-44315
1227	670	200	200	55251	-44286
1228	670	200	200	55251	-44286
1229	670	200	200	55285	-44286
1230	670	200	200	55285	-44256
1231	669	200	200	55285	-44256
1232	669	200	200	55320	-44256
1233	670	200	200	55320	-44227
1234	670	200	200	55320	-44227
1235	670	200	200	55353	-44227
1236	669	200	200	55353	-44199
1237	670	200	200	55353	-44199
1238	671	200	200	55387	-44199
1239	670	200	200	55387	-44173
1240	670	200	200	55387	-44173
1241	670	200	200	55419	-44173
1242	670	200	200	55419	-44146
1243	668	200	200	55419	-44146
1244	665	200	200	55450	-44146
1245	666	200	200	55450	-44118
1246	665	200	200	55450	-44118
1247	666	200	200	55479	-44118
1248	664	200	200	55479	-44092
1249	666	200	200	55479	-44092
1250	666	200	200	55508	-44092
1251	666	200	200	55508	-44066
1252	665	200	200	55508	-44066
1253	666	200	200	55539	-44066
1254	664	200	200	55539	-44041
1255	666	200	200	55539	-44041
1256	665	200	200	55573	-44041
1257	666	200	200	55573	-44013
1258	666	200	200	55573	-44013
1259	666	200	200	55604	-44013
1260	665	200	200	55604	-43984
1261	666	200	200	55604	-43984
1262	666	200	200	55632	-43984
1263	666	200	200	55632	-43954
1264	665	200	200	55632	-43954
1265	665	200	200	55662	-43954
1266	666	200	200	55662	-43926
1267	666	200	200	55662	-43926
1268	666	200	200	55693	-43926
1269	666	200	200	55693	-43899
1270	666	200	200	55693	-43899
1271	666	200	200	55723	-43899
1272	665	200	200	55723	-43872
1273	667	200	200	55723	-43872
1274	665	200	200	55750	-43872
1275	666	200	200	55750	-43845
1276	665	200	200	55750	-43845
1277	666	200	200	55780	-43845
1278	666	200	200	55780	-43818
1279	666	200	200	55780	-43818
1280	666	200	200	55808	-43818
1281	666	200	200	55808	-43794
1282	665	200	200	55808	-43794
1283	666	200	200	55839	-43794
1284	666	200	200	55839	-43770
1285	665	200	200	55839	-43770
1286	666	200	200	55868	-43770
1287	665	200	200	55868	-43745
1288	666	200	200	55868	-43745
1289	666	200	200	55895	-43745
1290	666	200	200	55895	-43719
1291	666	200	200	55895	-43719
1292	666	200	200	55922	-43719
1293	665	200	200	55922	-43693
1294	666	200	200	55922	-43693
1295	666	200	200	55952	-43693
1296	666	200	200	55952	-43667
1297	666	200	200	55952	-43667
1298	666	200	200	55952	-43667
1299	664	200	200	55982	-43642
1300	665	200	200	55982	-43642
1301	666	200	200	55982	-43642
1302	666	200	200	56011	-43618
1303	664	200	200	56011	-43618
1304	666	200	200	56011	-43618
1305	666	200	200	56039	-43592
1306	666	200	200	56039	-43592
1307	664	200	200	56039	-43592
1308	666	200	200	56067	-43565
1309	665	200	200	56067	-43565
1310	666	200	200	56067	-43565
1311	666	200	200	56097	-43539
1312	666	200	200	56097	-43539
1313	666	200	200	56097	-43539
1314	666	200	200	56126	-43515
1315	666	200	200	56126	-43515
1316	666	200	200	56126	-43515
1317	666	200	200	56156	-43492
1318	664	200	200	56156	-43492
1319	666	200	200	56156	-43492
1320	666	200	200	56185	-43467
1321	666	200	200	56185	-43467
1322	665	200	200	56185	-43467
1323	666	200	200	56217	-43443
1324	666	200	200	56217	-43443
1325	666	200	200	56217	-43443
1326	666	200	200	56248	-43417
1327	666	200	200	56248	-43417
1328	666	200	200	56248	-43417
1329	666	200	200	56279	-43393
1330	665	200	200	56279	-43393
1331	666	200	200	56279	-43393
1332	665	200	200	56308	-43368
1333	665	200	200	56308	-43368
1334	665	200	200	56308	-43368
1335	666	200	200	56339	-43343
1336	666	200	200	56339	-43343
1337	665	200	200	56339	-43343
1338	664	200	200	56371	-43318
1339	666	200	200	56371	-43318
1340	666	200	200	56371	-43318
1341	665	200	200	56400	-43318
1342	666	200	200	56400	-43291
1343	666	200	200	56400	-43291
1344	666	200	200	56429	-43291
1345	663	200	200	56429	-43265
1346	661	200	200	56429	-43265
1347	661	200	200	56458	-43265
1348	661	200	200	56458	-43240
1349	660	200	200	56458	-43240
1350	661	200	200	56489	-43240
1351	662	200	200	56489	-43215
1352	661	200	200	56489	-43215
1353	661	200	200	56519	-43215
1354	660	200	200	56519	-43190
1355	662	200	200	56519	-43190
1356	662	200	200	56550	-43190
1357	662	200	200	56550	-43165
1358	660	200	200	56550	-43165
1359	661	200	200	56579	-43165
1360	662	200	200	56579	-43141
1361	662	200	200	56579	-43141
1362	662	200	200	56611	-43141
1363	662	200	200	56611	-43119
1364	661	200	200	56611	-43119
1365	661	200	200	56639	-43119
1366	660	200	200	56639	-43096
1367	661	200	200	56639	-43096
1368	662	200	200	56669	-43096
1369	661	200	200	56669	-43074
1370	661	200	200	56669	-43074
1371	661	200	200	56698	-43074
1372	662	200	200	56698	-43049
1373	661	200	200	56698	-43049
1374	662	200	200	56728	-43049
1375	661	200	200	56728	-43024
1376	662	200	200	56728	-43024
1377	661	200	200	56758	-43024
1378	661	200	200	56758	-42999
1379	662	200	200	56758	-42999
1380	662	200	200	56787	-42999
1381	661	200	200	56787	-42975
1382	661	200	200	56787	-42975
1383	662	200	200	56816	-42975
1384	661	200	200	56816	-42951
1385	662	200	200	56816	-42951
1386	661	200	200	56844	-42951
1387	661	200	200	56844	-42926
1388	661	200	200	56844	-42926
1389	661	200	200	56874	-42926
1390	661	200	200	56874	-42902
1391	662	200	200	56874	-42902
1392	661	200	200	56902	-42902
1393	662	200	200	56902	-42879
1394	661	200	200	56902	-42879
1395	661	200	200	56933	-42879
1396	662	200	200	56933	-42855
1397	661	200	200	56933	-42855
1398	661	200	200	56961	-42855
1399	662	200	200	56961	-42831
1400	662	200	200	56961	-42831
1401	662	200	200	56991	-42831
1402	661	200	200	56991	-42808
1403	662	200	200	56991	-42808
1404	662	200	200	57018	-42808
1405	662	200	200	57018	-42786
1406	662	200	200	57018	-42786
1407	660	200	200	57046	-42786
1408	661	200	200	57046	-42765
1409	661	200	200	57046	-42765
1410	662	200	200	57075	-42765
1411	661	200	200	57075	-42744
1412	662	200	200	57075	-42744
1413	662	200	200	57102	-42744
1414	661	200	200	57102	-42722
1415	661	200	200	57102	-42722
1416	661	200	200	57129	-42722
1417	661	200	200	57129	-42702
1418	662	200	200	57129	-42702
1419	662	200	200	57155	-42702
1420	660	200	200	57155	-42681
1421	662	200	200	57155	-42681
1422	662	200	200	57155	-42681
1423	662	200	200	57183	-42661
1424	661	200	200	57183	-42661
1425	662	200	200	57183	-42661
1426	662	200	200	57212	-42640
1427	661	200	200	57212	-42640
1428	661	200	200	57212	-42640
1429	662	200	200	57244	-42619
1430	661	200	200	57244	-42619
1431	662	200	200	57244	-42619
1432	660	200	200	57271	-42596
1433	661	200	200	57271	-42596
1434	661	200	200	57271	-42596
1435	662	200	200	57300	-42575
1436	661	200	200	57300	-42575
1437	662	200	200	57300	-42575
1438	662	200	200	57330	-42554
1439	662	200	200	57330	-42554
1440	660	200	200	57330	-42554
1441	660	200	200	57359	-42534
1442	661	200	200	57359	-42534
1443	662	200	200	57359	-42534
1444	660	200	200	57389	-42514
1445	662	200	200	57389	-42514
1446	662	200	200	57389	-42514
1447	662	200	200	57417	-42495
1448	660	200	200	57417	-42495
1449	662	200	200	57417	-42495
1450	662	200	200	57446	-42474
1451	662	200	200	57446	-42474
1452	660	200	200	57446	-42474
1453	661	200	200	57471	-42456
1454	661	200	200	57471	-42456
1455	662	200	200	57471	-42456
1456	660	200	200	57496	-42439
1457	661	200	200	57496	-42439
1458	661	200	200	57496	-42439
1459	661	200	200	57520	-42439
1460	662	200	200	57520	-42422
1461	662	200	200	57520	-42422
1462	661	200	200	57543	-42422
1463	661	200	200	57543	-42406
1464	659	200	200	57543	-42406
1465	658	200	200	57570	-42406
1466	657	200	200	57570	-42387
1467	658	200	200	57570	-42387
1468	657	200	200	57597	-42387
1469	658	200	200	57597	-42368
1470	658	200	200	57597	-42368
1471	658	200	200	57628	-42368
1472	657	200	200	57628	-42347
1473	658	200	200	57628	-42347
1474	657	200	200	57654	-42347
1475	658	200	200	57654	-42328
1476	657	200	200	57654	-42328
1477	657	200	200	57679	-42328
1478	658	200	200	57679	-42308
1479	658	200	200	57679	-42308
1480	658	200	200	57705	-42308
1481	659	200	200	57705	-42289
1482	658	200	200	57705	-42289
1483	657	200	200	57729	-42289
1484	657	200	200	57729	-42270
1485	658	200	200	57729	-42270
1486	658	200	200	57756	-42270
1487	657	200	200	57756	-42252
1488	657	200	200	57756	-42252
1489	657	200	200	57780	-42252
1490	658	200	200	57780	-42232
1491	657	200	200	57780	-42232
1492	658	200	200	57804	-42232
1493	657	200	200	57804	-42211
1494	658	200	200	57804	-42211
1495	657	200	200	57828	-42211
1496	658	200	200	57828	-42191
1497	658	200	200	57828	-42191
1498	658	200	200	57852	-42191
1499	659	200	200	57852	-42171
1500	658	200	200	57852	-42171
1501	658	200	200	57878	-42171
1502	658	200	200	57878	-42153
1503	658	200	200	57878	-42153
1504	658	200	200	57904	-42153
1505	658	200	200	57904	-42136
1506	657	200	200	57904	-42136
1507	658	200	200	57927	-42136
1508	658	200	200	57927	-42120
1509	657	200	200	57927	-42120
1510	658	200	200	57952	-42120
1511	658	200	200	57952	-42104
1512	657	200	200	57952	-42104
1513	657	200	200	57976	-42104
1514	658	200	200	57976	-42088
1515	658	200	200	57976	-42088
1516	658	200	200	58002	-42088
1517	659	200	200	58002	-42071
1518	658	200	200	58002	-42071
1519	658	200	200	58029	-42071
1520	656	200	200	58029	-42053
1521	656	200	200	58029	-42053
1522	657	200	200	58053	-42053
1523	658	200	200	58053	-42034
1524	658	200	200	58053	-42034
1525	657	200	200	58078	-42034
1526	656	200	200	58078	-42015
1527	658	200	200	58078	-42015
1528	658	200	200	58100	-42015
1529	658	200	200	58100	-41998
1530	658	200	200	58100	-41998
1531	658	200	200	58122	-41998
1532	658	200	200	58122	-41979
1533	657	200	200	58122	-41979
1534	657	200	200	58144	-41979
1535	658	200	200	58144	-41958
1536	658	200	200	58144	-41958
1537	656	200	200	58167	-41958
1538	656	200	200	58167	-41938
1539	658	200	200	58167	-41938
1540	658	200	200	58167	-41938
1541	658	200	200	58190	-41918
1542	658	200	200	58190	-41918
1543	658	200	200	58190	-41918
1544	658	200	200	58215	-41897
1545	656	200	200	58215	-41897
1546	658	200	200	58215	-41897
1547	658	200	200	58239	-41878
1548	658	200	200	58239	-41878
1549	656	200	200	58239	-41878
1550	657	200	200	58266	-41860
1551	658	200	200	58266	-41860
1552	658	200	200	58266	-41860
1553	658	200	200	58293	-41841
1554	658	200	200	58293	-41841
1555	658	200	200	58293	-41841
1556	658	200	200	58318	-41822
1557	657	200	200	58318	-41822
1558	658	200	200	58318	-41822
1559	658	200	200	58344	-41804
1560	659	200	200	58344	-41804
1561	657	200	200	58344	-41804
1562	658	200	200	58368	-41787
1563	658	200	200	58368	-41787
1564	657	200	200	58368	-41787
1565	657	200	200	58395	-41770
1566	658	200	200	58395	-41770
1567	658	200	200	58395	-41770
1568	658	200	200	58422	-41756
1569	657	200	200	58422	-41756
1570	658	200	200	58422	-41756
1571	658	200	200	58447	-41743
1572	658	200	200	58447	-41743
1573	658	200	200	58447	-41743
1574	658	200	200	58470	-41730
1575	658	200	200	58470	-41730
1576	658	200	200	58470	-41730
1577	658	200	200	58493	-41730
1578	658	200	200	58493	-41714
1579	658	200	200	58493	-41714
1580	658	200	200	58518	-41714
1581	658	200	200	58518	-41698
1582	658	200	200	58518	-41698
1583	658	200	200	58543	-41698
1584	658	200	200	58543	-41682
1585	658	200	200	58543	-41682
1586	657	200	200	58568	-41682
1587	658	200	200	58568	-41665
1588	657	200	200	58568	-41665
1589	657	200	200	58595	-41665
1590	657	200	200	58595	-41649
1591	658	200	200	58595	-41649
1592	658	200	200	58620	-41649
1593	658	200	200	58620	-41635
1594	658	200	200	58620	-41635
1595	658	200	200	58646	-41635
1596	657	200	200	58646	-41620
1597	658	200	200	58646	-41620
1598	658	200	200	58671	-41620
1599	658	200	200	58671	-41607
1600	657	200	200	58671	-41607
1601	658	200	200	58695	-41607
1602	658	200	200	58695	-41591
1603	658	200	200	58695	-41591
1604	658	200	200	58721	-41591
1605	658	200	200	58721	-41577
1606	658	200	200	58721	-41577
1607	658	200	200	58745	-41577
1608	658	200	200	58745	-41561
1609	658	200	200	58745	-41561
1610	658	200	200	58770	-41561
1611	658	200	200	58770	-41544
1612	658	200	200	58770	-41544
1613	657	200	200	58794	-41544
1614	658	200	200	58794	-41528
1615	658	200	200	58794	-41528
1616	658	200	200	58815	-41528
1617	656	200	200	58815	-41509
1618	658	200	200	58815	-41509
1619	658	200	200	58838	-41509
1620	658	200	200	58838	-41494
1621	657	200	200	58838	-41494
1622	657	200	200	58862	-41494
1623	656	200	200	58862	-41480
1624	654	200	200	58862	-41480
1625	653	200	200	58886	-41480
1626	653	200	200	58886	-41468
1627	654	200	200	58886	-41468
1628	654	200	200	58911	-41468
1629	654	200	200	58911	-41456
1630	652	200	200	58911	-41456
1631	654	200	200	58936	-41456
1632	654	200	200	58936	-41445
1633	654	200	200	58936	-41445
1634	653	200	200	58962	-41445
1635	654	200	200	58962	-41433
1636	652	200	200	58962	-41433
1637	654	200	200	58988	-41433
1638	653	200	200	58988	-41423
1639	654	200	200	58988	-41423
1640	653	200	200	59013	-41423
1641	654	200	200	59013	-41413
1642	654	200	200	59013	-41413
1643	654	200	200	59038	-41413
1644	653	200	200	59038	-41402
1645	654	200	200	59038	-41402
1646	653	200	200	59061	-41402
1647	654	200	200	59061	-41389
1648	653	200	200	59061	-41389
1649	654	200	200	59085	-41389
1650	653	200	200	59085	-41375
1651	651	200	200	59085	-41375
1652	653	200	200	59110	-41375
1653	654	200	200	59110	-41362
1654	654	200	200	59110	-41362
1655	653	200	200	59133	-41362
1656	652	200	200	59133	-41350
1657	654	200	200	59133	-41350
1658	654	200	200	59133	-41350
1659	653	200	200	59156	-41335
1660	654	200	200	59156	-41335
1661	653	200	200	59156	-41335
1662	654	200	200	59177	-41321
1663	652	200	200	59177	-41321
1664	653	200	200	59177	-41321
1665	653	200	200	59199	-41305
1666	654	200	200	59199	-41305
1667	654	200	200	59199	-41305
1668	654	200	200	59222	-41290
1669	653	200	200	59222	-41290
1670	653	200	200	59222	-41290
1671	653	200	200	59248	-41273
1672	653	200	200	59248	-41273
1673	652	200	200	59248	-41273
1674	653	200	200	59273	-41255
1675	654	200	200	59273	-41255
1676	653	200	200	59273	-41255
1677	654	200	200	59299	-41238
1678	653	200	200	59299	-41238
1679	654	200	200	59299	-41238
1680	653	200	200	59323	-41221
1681	653	200	200	59323	-41221
1682	653	200	200	59323	-41221
1683	654	200	200	59348	-41204
1684	653	200	200	59348	-41204
1685	654	200	200	59348	-41204
1686	653	200	200	59374	-41188
1687	654	200	200	59374	-41188
1688	653	200	200	59374	-41188
1689	654	200	200	59400	-41172
1690	654	200	200	59400	-41172
1691	654	200	200	59400	-41172
1692	654	200	200	59426	-41157
1693	654	200	200	59426	-41157
1694	653	200	200	59426	-41157
1695	654	200	200	59449	-41157
1696	653	200	200	59449	-41141
1697	654	200	200	59449	-41141
1698	653	200	200	59473	-41141
1699	654	200	200	59473	-41126
1700	653	200	200	59473	-41126
1701	653	200	200	59496	-41126
1702	653	200	200	59496	-41112
1703	653	200	200	59496	-41112
1704	653	200	200	59516	-41112
1705	653	200	200	59516	-41098
1706	653	200	200	59516	-41098
1707	654	200	200	59537	-41098
1708	653	200	200	59537	-41085
1709	654	200	200	59537	-41085
1710	653	200	200	59558	-41085
1711	653	200	200	59558	-41073
1712	654	200	200	59558	-41073
1713	654	200	200	59578	-41073
1714	653	200	200	59578	-41060
1715	654	200	200	59578	-41060
1716	653	200	200	59598	-41060
1717	654	200	200	59598	-41046
1718	654	200	200	59598	-41046
1719	654	200	200	59621	-41046
1720	654	200	200	59621	-41031
1721	653	200	200	59621	-41031
1722	654	200	200	59643	-41031
1723	653	200	200	59643	-41016
1724	654	200	200	59643	-41016
1725	653	200	200	59669	-41016
1726	653	200	200	59669	-41001
1727	652	200	200	59669	-41001
1728	654	200	200	59692	-41001
1729	654	200	200	59692	-40986
1730	653	200	200	59692	-40986
1731	653	200	200	59713	-40986
1732	652	200	200	59713	-40971
1733	653	200	200	59713	-40971
1734	654	200	200	59735	-40971
1735	653	200	200	59735	-40956
1736	654	200	200	59735	-40956
1737	654	200	200	59757	-40956
1738	653	200	200	59757	-40941
1739	651	200	200	59757	-40941
1740	653	200	200	59779	-40941
1741	654	200	200	59779	-40925
1742	654	200	200	59779	-40925
1743	653	200	200	59801	-40925
1744	653	200	200	59801	-40909
1745	654	200	200	59801	-40909
1746	653	200	200	59821	-40909
1747	652	200	200	59821	-40893
1748	654	200	200	59821	-40893
1749	654	200	200	59839	-40893
1750	653	200	200	59839	-40876
1751	654	200	200	59839	-40876
1752	654	200	200	59858	-40876
1753	654	200	200	59858	-40860
1754	654	200	200	59858	-40860
1755	654	200	200	59878	-40860
1756	654	200	200	59878	-40845
1757	651	200	200	59878	-40845
1758	653	200	200	59898	-40845
1759	654	200	200	59898	-40830
1760	653	200	200	59898	-40830
1761	653	200	200	59920	-40830
1762	652	200	200	59920	-40816
1763	653	200	200	59920	-40816
1764	654	200	200	59942	-40816
1765	654	200	200	59942	-40802
1766	653	200	200	59942	-40802
1767	653	200	200	59963	-40802
1768	653	200	200	59963	-40789
1769	654	200	200	59963	-40789
1770	654	200	200	59982	-40789
1771	654	200	200	59982	-40777
1772	654	200	200	59982	-40777
1773	653	200	200	60004	-40777
1774	653	200	200	60004	-40766
1775	653	200	200	60004	-40766
1776	654	200	200	60004	-40766
1777	654	200	200	60024	-40755
1778	653	200	200	60024	-40755
1779	654	200	200	60024	-40755
1780	653	200	200	60047	-40744
1781	653	200	200	60047	-40744
1782	654	200	200	60047	-40744
1783	653	200	200	60070	-40734
1784	654	200	200	60070	-40734
1785	654	200	200	60070	-40734
1786	653	200	200	60091	-40725
1787	653	200	200	60091	-40725
1788	654	200	200	60091	-40725
1789	654	200	200	60111	-40717
1790	654	200	200	60111	-40717
1791	653	200	200	60111	-40717
1792	653	200	200	60132	-40708
1793	653	200	200	60132	-40708
1794	653	200	200	60132	-40708
1795	652	200	200	60150	-40698
1796	654	200	200	60150	-40698
1797	653	200	200	60150	-40698
1798	653	200	200	60169	-40686
1799	654	200	200	60169	-40686
1800	654	200	200	60169	-40686
1801	653	200	200	60188	-40675
1802	653	200	200	60188	-40675
1803	654	200	200	60188	-40675
1804	654	200	200	60207	-40664
1805	653	200	200	60207	-40664
1806	653	200	200	60207	-40664
1807	654	200	200	60226	-40654
1808	654	200	200	60226	-40654
1809	653	200	200	60226	-40654
1810	653	200	200	60247	-40654
1811	654	200	200	60247	-40642
1812	654	200	200	60247	-40642
1813	654	200	200	60268	-40642
1814	653	200	200	60268	-40630
1815	654	200	200	60268	-40630
1816	654	200	200	60290	-40630
1817	653	200	200	60290	-40618
1818	654	200	200	60290	-40618
1819	653	200	200	60314	-40618
1820	654	200	200	60314	-40606
1821	654	200	200	60314	-40606
1822	653	200	200	60339	-40606
1823	653	200	200	60339	-40594
1824	654	200	200	60339	-40594
1825	654	200	200	60362	-40594
1826	653	200	200	60362	-40582
1827	654	200	200	60362	-40582
1828	653	200	200	60386	-40582
1829	654	200	200	60386	-40568
1830	653	200	200	60386	-40568
1831	654	200	200	60409	-40568
1832	652	200	200	60409	-40554
1833	653	200	200	60409	-40554
1834	654	200	200	60433	-40554
1835	654	200	200	60433	-40542
1836	654	200	200	60433	-40542
1837	654	200	200	60458	-40542
1838	654	200	200	60458	-40529
1839	653	200	200	60458	-40529
1840	654	200	200	60481	-40529
1841	653	200	200	60481	-40517
1842	654	200	200	60481	-40517
1843	654	200	200	60502	-40517
1844	654	200	200	60502	-40504
1845	653	200	200	60502	-40504
1846	653	200	200	60523	-40504
1847	653	200	200	60523	-40492
1848	654	200	200	60523	-40492
1849	654	200	200	60543	-40492
1850	654	200	200	60543	-40482
1851	653	200	200	60543	-40482
1852	654	200	200	60565	-40482
1853	653	200	200	60565	-40472
1854	654	200	200	60565	-40472
1855	654	200	200	60588	-40472
1856	654	200	200	60588	-40462
1857	653	200	200	60588	-40462
1858	653	200	200	60610	-40462
1859	653	200	200	60610	-40451
1860	654	200	200	60610	-40451
1861	654	200	200	60635	-40451
1862	654	200	200	60635	-40441
1863	653	200	200	60635	-40441
1864	653	200	200	60658	-40441
1865	653	200	200	60658	-40430
1866	653	200	200	60658	-40430
1867	654	200	200	60680	-40430
1868	654	200	200	60680	-40421
1869	653	200	200	60680	-40421
1870	653	200	200	60703	-40421
1871	654	200	200	60703	-40412
1872	654	200	200	60703	-40412
1873	653	200	200	60724	-40412
1874	654	200	200	60724	-40403
1875	654	200	200	60724	-40403
1876	654	200	200	60744	-40403
1877	654	200	200	60744	-40395
1878	653	200	200	60744	-40395
1879	654	200	200	60766	-40395
1880	653	200	200	60766	-40388
1881	653	200	200	60766	-40388
1882	653	200	200	60787	-40388
1883	654	200	200	60787	-40380
1884	653	200	200	60787	-40380
1885	653	200	200	60808	-40380
1886	654	200	200	60808	-40372
1887	654	200	200	60808	-40372
1888	654	200	200	60829	-40372
1889	654	200	200	60829	-40364
1890	653	200	200	60829	-40364
1891	654	200	200	60848	-40364
1892	653	200	200	60848	-40354
1893	652	200	200	60848	-40354
1894	654	200	200	60848	-40354
1895	653	200	200	60864	-40343
1896	653	200	200	60864	-40343
1897	654	200	200	60864	-40343
1898	653	200	200	60881	-40333
1899	654	200	200	60881	-40333
1900	654	200	200	60881	-40333
1901	654	200	200	60899	-40322
1902	654	200	200	60899	-40322
1903	654	200	200	60899	-40322
1904	653	200	200	60918	-40310
1905	653	200	200	60918	-40310
1906	654	200	200	60918	-40310
1907	654	200	200	60938	-40297
1908	654	200	200	60938	-40297
1909	654	200	200	60938	-40297
1910	653	200	200	60958	-40285
1911	654	200	200	60958	-40285
1912	652	200	200	60958	-40285
1913	653	200	200	60979	-40272
1914	653	200	200	60979	-40272
1915	654	200	200	60979	-40272
1916	654	200	200	61000	-40259
1917	654	200	200	61000	-40259
1918	654	200	200	61000	-40259
1919	653	200	200	61022	-40247
1920	653	200	200	61022	-40247
1921	653	200	200	61022	-40247
1922	654	200	200	61043	-40235
1923	653	200	200	61043	-40235
1924	653	200	200	61043	-40235
1925	652	200	200	61063	-40222
1926	654	200	200	61063	-40222
1927	654	200	200	61063	-40222
1928	654	200	200	61084	-40222
1929	653	200	200	61084	-40210
1930	653	200	200	61084	-40210
1931	654	200	200	61103	-40210
1932	654	200	200	61103	-40197
1933	654	200	200	61103	-40197
1934	654	200	200	61123	-40197
1935	654	200	200	61123	-40184
1936	653	200	200	61123	-40184
1937	654	200	200	61145	-40184
1938	654	200	200	61145	-40170
1939	654	200	200	61145	-40170
1940	654	200	200	61167	-40170
1941	654	200	200	61167	-40157
1942	652	200	200	61167	-40157
1943	653	200	200	61185	-40157
1944	654	200	200	61185	-40144
1945	654	200	200	61185	-40144
1946	654	200	200	61204	-40144
1947	654	200	200	61204	-40131
1948	654	200	200	61204	-40131
1949	654	200	200	61222	-40131
1950	654	200	200	61222	-40120
1951	653	200	200	61222	-40120
1952	653	200	200	61240	-40120
1953	654	200	200	61240	-40109
1954	652	200	200	61240	-40109
1955	653	200	200	61258	-40109
1956	653	200	200	61258	-40099
1957	654	200	200	61258	-40099
1958	654	200	200	61280	-40099
1959	654	200	200	61280	-40089
1960	654	200	200	61280	-40089
1961	654	200	200	61303	-40089
1962	654	200	200	61303	-40081
1963	652	200	200	61303	-40081
1964	653	200	200	61327	-40081
1965	653	200	200	61327	-40074
1966	654	200	200	61327	-40074
1967	653	200	200	61350	-40074
1968	652	200	200	61350	-40066
1969	654	200	200	61350	-40066
1970	654	200	200	61370	-40066
1971	654	200	200	61370	-40059
1972	654	200	200	61370	-40059
1973	654	200	200	61390	-40059
1974	654	200	200	61390	-40052
1975	654	200	200	61390	-40052
1976	654	200	200	61412	-40052
1977	654	200	200	61412	-40044
1978	654	200	200	61412	-40044
1979	653	200	200	61433	-40044
1980	653	200	200	61433	-40036
1981	651	200	200	61433	-40036
1982	654	200	200	61456	-40036
1983	653	200	200	61456	-40027
1984	654	200	200	61456	-40027
1985	654	200	200	61478	-40027
1986	653	200	200	61478	-40018
1987	654	200	200	61478	-40018
1988	654	200	200	61499	-40018
1989	653	200	200	61499	-40008
1990	654	200	200	61499	-40008
1991	654	200	200	61520	-40008
1992	654	200	200	61520	-39997
1993	653	200	200	61520	-39997
1994	654	200	200	61541	-39997
1995	654	200	200	61541	-39986
1996	654	200	200	61541	-39986
1997	653	200	200	61557	-39986
1998	653	200	200	61557	-39976
1999	654	200	200	61557	-39976
2000	653	200	200	61574	-39976
2001	653	200	200	61574	-39964
2002	654	200	200	61574	-39964
2003	654	200	200	61592	-39964
2004	653	200	200	61592	-39954
2005	654	200	200	61592	-39954
2006	654	200	200	61608	-39954
2007	654	200	200	61608	-39943
2008	652	200	200	61608	-39943
2009	653	200	200	61625	-39943
2010	654	200	200	61625	-39930
2011	654	200	200	61625	-39930
2012	653	200	200	61625	-39930
2013	654	200	200	61641	-39917
2014	654	200	200	61641	-39917
2015	654	200	200	61641	-39917
2016	653	200	200	61660	-39904
2017	653	200	200	61660	-39904
2018	654	200	200	61660	-39904
2019	654	200	200	61680	-39892
2020	653	200	200	61680	-39892
2021	654	200	200	61680	-39892
2022	653	200	200	61700	-39878
2023	653	200	200	61700	-39878
2024	654	200	200	61700	-39878
2025	653	200	200	61721	-39866
2026	654	200	200	61721	-39866
2027	654	200	200	61721	-39866
2028	653	200	200	61741	-39853
2029	653	200	200	61741	-39853
2030	654	200	200	61741	-39853
2031	654	200	200	61760	-39842
2032	652	200	200	61760	-39842
2033	653	200	200	61760	-39842
2034	654	200	200	61778	-39830
2035	653	200	200	61778	-39830
2036	653	200	200	61778	-39830
2037	654	200	200	61797	-39820
2038	654	200	200	61797	-39820
2039	654	200	200	61797	-39820
2040	654	200	200	61816	-39809
2041	653	200	200	61816	-39809
2042	653	200	200	61816	-39809
2043	653	200	200	61834	-39798
2044	654	200	200	61834	-39798
2045	654	200	200	61834	-39798
2046	654	200	200	61853	-39787
2047	653	200	200	61853	-39787
2048	653	200	200	61853	-39787
2049	654	200	200	61870	-39787
2050	654	200	200	61870	-39777
2051	654	200	200	61870	-39777
2052	654	200	200	61884	-39777
2053	654	200	200	61884	-39768
2054	653	200	200	61884	-39768
2055	652	200	200	61898	-39768
2056	654	200	200	61898	-39758
2057	653	200	200	61898	-39758
2058	653	200	200	61914	-39758
2059	653	200	200	61914	-39748
2060	653	200	200	61914	-39748
2061	654	200	200	61931	-39748
2062	654	200	200	61931	-39740
2063	654	200	200	61931	-39740
2064	654	200	200	61948	-39740
2065	653	200	200	61948	-39733
2066	653	200	200	61948	-39733
2067	653	200	200	61967	-39733
2068	654	200	200	61967	-39726
2069	653	200	200	61967	-39726
2070	653	200	200	61986	-39726
2071	654	200	200	61986	-39720
2072	654	200	200	61986	-39720
2073	654	200	200	62005	-39720
2074	654	200	200	62005	-39715
2075	654	200	200	62005	-39715
2076	653	200	200	62021	-39715
2077	652	200	200	62021	-39711
2078	652	200	200	62021	-39711
2079	654	200	200	62039	-39711
2080	653	200	200	62039	-39707
2081	653	200	200	62039	-39707
2082	654	200	200	62056	-39707
2083	653	200	200	62056	-39702
2084	654	200	200	62056	-39702
2085	654	200	200	62071	-39702
2086	653	200	200	62071	-39698
2087	654	200	200	62071	-39698
2088	654	200	200	62089	-39698
2089	653	200	200	62089	-39693
2090	653	200	200	62089	-39693
2091	653	200	200	62108	-39693
2092	653	200	200	62108	-39688
2093	653	200	200	62108	-39688
2094	654	200	200	62128	-39688
2095	654	200	200	62128	-39682
2096	653	200	200	62128	-39682
2097	654	200	200	62146	-39682
2098	653	200	200	62146	-39676
2099	654	200	200	62146	-39676
2100	654	200	200	62165	-39676
2101	654	200	200	62165	-39670
2102	654	200	200	62165	-39670
2103	652	200	200	62183	-39670
2104	653	200	200	62183	-39663
2105	654	200	200	62183	-39663
2106	653	200	200	62198	-39663
2107	653	200	200	62198	-39655
2108	654	200	200	62198	-39655
2109	654	200	200	62214	-39655
2110	654	200	200	62214	-39647
2111	654	200	200	62214	-39647
2112	654	200	200	62230	-39647
2113	654	200	200	62230	-39639
2114	653	200	200	62230	-39639
2115	653	200	200	62245	-39639
2116	653	200	200	62245	-39630
2117	653	200	200	62245	-39630
2118	653	200	200	62262	-39630
2119	654	200	200	62262	-39621
2120	654	200	200	62262	-39621
2121	654	200	200	62280	-39621
2122	654	200	200	62280	-39614
2123	654	200	200	62280	-39614
2124	654	200	200	62300	-39614
2125	654	200	200	62300	-39606
2126	654	200	200	62300	-39606
2127	654	200	200	62300	-39606
2128	653	200	200	62320	-39598
2129	653	200	200	62320	-39598
2130	654	200	200	62320	-39598
2131	654	200	200	62341	-39589
2132	653	200	200	62341	-39589
2133	653	200	200	62341	-39589
2134	654	200	200	62365	-39580
2135	654	200	200	62365	-39580
2136	654	200	200	62365	-39580
2137	654	200	200	62388	-39570
2138	654	200	200	62388	-39570
2139	654	200	200	62388	-39570
2140	653	200	200	62410	-39562
2141	652	200	200	62410	-39562
2142	653	200	200	62410	-39562
2143	654	200	200	62431	-39554
2144	653	200	200	62431	-39554
2145	653	200	200	62431	-39554
2146	653	200	200	62452	-39545
2147	654	200	200	62452	-39545
2148	654	200	200	62452	-39545
2149	654	200	200	62472	-39537
2150	654	200	200	62472	-39537
2151	654	200	200	62472	-39537
2152	654	200	200	62495	-39528
2153	653	200	200	62495	-39528
2154	652	200	200	62495	-39528
2155	654	200	200	62516	-39520
2156	654	200	200	62516	-39520
2157	654	200	200	62516	-39520
2158	654	200	200	62535	-39511
2159	652	200	200	62535	-39511
2160	653	200	200	62535	-39511
2161	654	200	200	62553	-39502
2162	654	200	200	62553	-39502
2163	654	200	200	62553	-39502
2164	654	200	200	62569	-39493
2165	654	200	200	62569	-39493
2166	653	200	200	62569	-39493
2167	653	200	200	62585	-39484
2168	653	200	200	62585	-39484
2169	654	200	200	62585	-39484
2170	654	200	200	62602	-39484
2171	654	200	200	62602	-39474
2172	653	200	200	62602	-39474
2173	653	200	200	62622	-39474
2174	653	200	200	62622	-39465
2175	654	200	200	62622	-39465
2176	654	200	200	62641	-39465
2177	653	200	200	62641	-39456
2178	653	200	200	62641	-39456
2179	654	200	200	62660	-39456
2180	653	200	200	62660	-39449
2181	654	200	200	62660	-39449
2182	653	200	200	62682	-39449
2183	654	200	200	62682	-39442
2184	654	200	200	62682	-39442
2185	654	200	200	62703	-39442
2186	653	200	200	62703	-39436
2187	653	200	200	62703	-39436
2188	654	200	200	62723	-39436
2189	653	200	200	62723	-39431
2190	654	200	200	62723	-39431
2191	654	200	200	62744	-39431
2192	653	200	200	62744	-39425
2193	654	200	200	62744	-39425
2194	654	200	200	62763	-39425
2195	653	200	200	62763	-39419
2196	654	200	200	62763	-39419
2197	653	200	200	62782	-39419
2198	654	200	200	62782	-39414
2199	654	200	200	62782	-39414
2200	654	200	200	62801	-39414
2201	654	200	200	62801	-39410
2202	653	200	200	62801	-39410
2203	654	200	200	62822	-39410
2204	653	200	200	62822	-39405
2205	654	200	200	62822	-39405
2206	653	200	200	62842	-39405
2207	653	200	200	62842	-39402
2208	654	200	200	62842	-39402
2209	652	200	200	62862	-39402
2210	653	200	200	62862	-39398
2211	654	200	200	62862	-39398
2212	652	200	200	62882	-39398
2213	653	200	200	62882	-39396
2214	654	200	200	62882	-39396
2215	654	200	200	62900	-39396
2216	654	200	200	62900	-39393
2217	654	200	200	62900	-39393
2218	654	200	200	62917	-39393
2219	654	200	200	62917	-39391
2220	654	200	200	62917	-39391
2221	654	200	200	62934	-39391
2222	654	200	200	62934	-39389
2223	652	200	200	62934	-39389
2224	654	200	200	62952	-39389
2225	654	200	200	62952	-39388
2226	652	200	200	62952	-39388
2227	653	200	200	62969	-39388
2228	654	200	200	62969	-39387
2229	653	200	200	62969	-39387
2230	653	200	200	62987	-39387
2231	654	200	200	62987	-39386
2232	653	200	200	62987	-39386
2233	652	200	200	63007	-39386
2234	653	200	200	63007	-39384
2235	653	200	200	63007	-39384
2236	654	200	200	63026	-39384
2237	653	200	200	63026	-39383
2238	654	200	200	63026	-39383
2239	654	200	200	63045	-39383
2240	654	200	200	63045	-39382
2241	654	200	200	63045	-39382
2242	654	200	200	63066	-39382
2243	653	200	200	63066	-39381
2244	652	200	200	63066	-39381
2245	652	200	200	63066	-39381
2246	654	200	200	63087	-39379
2247	653	200	200	63087	-39379
2248	653	200	200	63087	-39379
2249	654	200	200	63106	-39378
2250	654	200	200	63106	-39378
2251	654	200	200	63106	-39378
2252	654	200	200	63125	-39377
2253	654	200	200	63125	-39377
2254	653	200	200	63125	-39377
2255	654	200	200	63144	-39375
2256	654	200	200	63144	-39375
2257	654	200	200	63144	-39375
2258	654	200	200	63162	-39374
2259	652	200	200	63162	-39374
2260	654	200	200	63162	-39374
2261	654	200	200	63181	-39372
2262	654	200	200	63181	-39372
2263	653	200	200	63181	-39372
2264	654	200	200	63200	-39371
2265	653	200	200	63200	-39371
2266	654	200	200	63200	-39371
2267	653	200	200	63219	-39369
2268	654	200	200	63219	-39369
2269	653	200	200	63219	-39369
2270	654	200	200	63235	-39368
2271	654	200	200	63235	-39368
2272	654	200	200	63235	-39368
2273	653	200	200	63251	-39367
2274	654	200	200	63251	-39367
2275	654	200	200	63251	-39367
2276	654	200	200	63269	-39365
2277	652	200	200	63269	-39365
2278	654	200	200	63269	-39365
2279	653	200	200	63284	-39363
2280	654	200	200	63284	-39363
2281	652	200	200	63284	-39363
2282	654	200	200	63300	-39359
2283	653	200	200	63300	-39359
2284	653	200	200	63300	-39359
2285	654	200	200	63317	-39355
2286	654	200	200	63317	-39355
2287	654	200	200	63317	-39355
2288	653	200	200	63337	-39355
2289	654	200	200	63337	-39350
2290	653	200	200	63337	-39350
2291	653	200	200	63355	-39350
2292	653	200	200	63355	-39345
2293	653	200	200	63355	-39345
2294	653	200	200	63376	-39345
2295	653	200	200	63376	-39340
2296	654	200	200	63376	-39340
2297	654	200	200	63396	-39340
2298	654	200	200	63396	-39334
2299	653	200	200	63396	-39334
2300	653	200	200	63414	-39334
2301	653	200	200	63414	-39329
2302	653	200	200	63414	-39329
2303	653	200	200	63433	-39329
2304	653	200	200	63433	-39324
2305	653	200	200	63433	-39324
2306	654	200	200	63453	-39324
2307	654	200	200	63453	-39318
2308	653	200	200	63453	-39318
2309	653	200	200	63473	-39318
2310	654	200	200	63473	-39312
2311	653	200	200	63473	-39312
2312	654	200	200	63491	-39312
2313	653	200	200	63491	-39306
2314	654	200	200	63491	-39306
2315	653	200	200	63511	-39306
2316	653	200	200	63511	-39299
2317	653	200	200	63511	-39299
2318	653	200	200	63530	-39299
2319	653	200	200	63530	-39291
2320	654	200	200	63530	-39291
2321	654	200	200	63547	-39291
2322	653	200	200	63547	-39284
2323	653	200	200	63547	-39284
2324	654	200	200	63565	-39284
2325	654	200	200	63565	-39276
2326	654	200	200	63565	-39276
2327	654	200	200	63582	-39276
2328	654	200	200	63582	-39267
2329	654	200	200	63582	-39267
2330	653	200	200	63597	-39267
2331	653	200	200	63597	-39259
2332	653	200	200	63597	-39259
2333	654	200	200	63610	-39259
2334	654	200	200	63610	-39250
2335	654	200	200	63610	-39250
2336	654	200	200	63624	-39250
2337	651	200	200	63624	-39240
2338	653	200	200	63624	-39240
2339	653	200	200	63639	-39240
2340	654	200	200	63639	-39230
2341	653	200	200	63639	-39230
2342	653	200	200	63654	-39230
2343	654	200	200	63654	-39221
2344	654	200	200	63654	-39221
2345	653	200	200	63669	-39221
2346	654	200	200	63669	-39211
2347	653	200	200	63669	-39211
2348	654	200	200	63685	-39211
2349	653	200	200	63685	-39203
2350	654	200	200	63685	-39203
2351	653	200	200	63702	-39203
2352	654	200	200	63702	-39195
2353	653	200	200	63702	-39195
2354	654	200	200	63720	-39195
2355	654	200	200	63720	-39186
2356	654	200	200	63720	-39186
2357	653	200	200	63738	-39186
2358	654	200	200	63738	-39176
2359	653	200	200	63738	-39176
2360	653	200	200	63760	-39176
2361	654	200	200	63760	-39168
2362	654	200	200	63760	-39168
2363	654	200	200	63779	-39168
2364	654	200	200	63779	-39160
2365	654	200	200	63779	-39160
2366	654	200	200	63779	-39160
2367	654	200	200	63797	-39152
2368	652	200	200	63797	-39152
2369	653	200	200	63797	-39152
2370	654	200	200	63812	-39145
2371	654	200	200	63812	-39145
2372	653	200	200	63812	-39145
2373	654	200	200	63830	-39137
2374	654	200	200	63830	-39137
2375	653	200	200	63830	-39137
2376	653	200	200	63847	-39128
2377	654	200	200	63847	-39128
2378	654	200	200	63847	-39128
2379	654	200	200	63862	-39120
2380	654	200	200	63862	-39120
2381	654	200	200	63862	-39120
2382	654	200	200	63879	-39112
2383	652	200	200	63879	-39112
2384	654	200	200	63879	-39112
2385	653	200	200	63896	-39104
2386	654	200	200	63896	-39104
2387	654	200	200	63896	-39104
2388	654	200	200	63913	-39095
2389	654	200	200	63913	-39095
2390	654	200	200	63913	-39095
2391	653	200	200	63926	-39087
2392	654	200	200	63926	-39087
2393	653	200	200	63926	-39087
2394	654	200	200	63938	-39080
2395	654	200	200	63938	-39080
2396	654	200	200	63938	-39080
2397	653	200	200	63950	-39075
2398	654	200	200	63950	-39075
2399	654	200	200	63950	-39075
2400	654	200	200	63963	-39069
2401	654	200	200	63963	-39069
2402	654	200	200	63963	-39069
2403	653	200	200	63976	-39064
2404	654	200	200	63976	-39064
2405	653	200	200	63976	-39064
2406	654	200	200	63988	-39064
2407	653	200	200	63988	-39060
2408	654	200	200	63988	-39060
2409	654	200	200	64001	-39060
2410	654	200	200	64001	-39055
2411	654	200	200	64001	-39055
2412	654	200	200	64017	-39055
2413	654	200	200	64017	-39052
2414	654	200	200	64017	-39052
2415	653	200	200	64031	-39052
2416	654	200	200	64031	-39049
2417	654	200	200	64031	-39049
2418	653	200	200	64046	-39049
2419	653	200	200	64046	-39046
2420	653	200	200	64046	-39046
2421	653	200	200	64061	-39046
2422	654	200	200	64061	-39044
2423	654	200	200	64061	-39044
2424	653	200	200	64075	-39044
2425	653	200	200	64075	-39043
2426	654	200	200	64075	-39043
2427	654	200	200	64090	-39043
2428	654	200	200	64090	-39043
2429	653	200	200	64090	-39043
2430	653	200	200	64104	-39043
2431	653	200	200	64104	-39042
2432	654	200	200	64104	-39042
2433	653	200	200	64117	-39042
2434	654	200	200	64117	-39042
2435	653	200	200	64117	-39042
2436	653	200	200	64131	-39042
2437	654	200	200	64131	-39041
2438	654	200	200	64131	-39041
2439	654	200	200	64147	-39041
2440	653	200	200	64147	-39041
2441	654	200	200	64147	-39041
2442	654	200	200	64162	-39041
2443	653	200	200	64162	-39041
2444	653	200	200	64162	-39041
2445	654	200	200	64178	-39041
2446	654	200	200	64178	-39040
2447	653	200	200	64178	-39040
2448	653	200	200	64192	-39040
2449	654	200	200	64192	-39040
2450	654	200	200	64192	-39040
2451	653	200	200	64206	-39040
2452	654	200	200	64206	-39039
2453	653	200	200	64206	-39039
2454	653	200	200	64221	-39039
2455	653	200	200	64221	-39039
2456	653	200	200	64221	-39039
2457	654	200	200	64234	-39039
2458	654	200	200	64234	-39039
2459	653	200	200	64234	-39039
2460	653	200	200	64246	-39039
2461	653	200	200	64246	-39038
2462	654	200	200	64246	-39038
2463	654	200	200	64258	-39038
2464	653	200	200	64258	-39038
2465	652	200	200	64258	-39038
2466	652	200	200	64270	-39038
2467	654	200	200	64270	-39037
2468	653	200	200	64270	-39037
2469	654	200	200	64279	-39037
2470	653	200	200	64279	-39037
2471	654	200	200	64279	-39037
2472	653	200	200	64288	-39037
2473	654	200	200	64288	-39036
2474	653	200	200	64288	-39036
2475	653	200	200	64302	-39036
2476	653	200	200	64302	-39035
2477	652	200	200	64302	-39035
2478	653	200	200	64316	-39035
2479	654	200	200	64316	-39035
2480	653	200	200	64316	-39035
2481	652	200	200	64331	-39035
2482	653	200	200	64331	-39034
2483	653	200	200	64331	-39034
2484	654	200	200	64331	-39034
2485	652	200	200	64348	-39033
2486	654	200	200	64348	-39033
2487	653	200	200	64348	-39033
2488	654	200	200	64364	-39033
2489	654	200	200	64364	-39033
2490	653	200	200	64364	-39033
2491	653	200	200	64382	-39032
2492	653	200	200	64382	-39032
2493	654	200	200	64382	-39032
2494	654	200	200	64401	-39031
2495	654	200	200	64401	-39031
2496	654	200	200	64401	-39031
2497	654	200	200	64421	-39030
2498	653	200	200	64421	-39030
2499	653	200	200	64421	-39030
2500	653	200	200	64439	-39029
2501	654	200	200	64439	-39029
2502	653	200	200	64439	-39029
2503	653	200	200	64457	-39028
2504	653	200	200	64457	-39028
2505	653	200	200	64457	-39028
2506	654	200	200	64476	-39027
2507	653	200	200	64476	-39027
2508	653	200	200	64476	-39027
2509	653	200	200	64492	-39025
2510	653	200	200	64492	-39025
2511	653	200	200	64492	-39025
2512	654	200	200	64509	-39024
2513	653	200	200	64509	-39024
2514	654	200	200	64509	-39024
2515	653	200	200	64527	-39022
2516	654	200	200	64527	-39022
2517	653	200	200	64527	-39022
2518	654	200	200	64545	-39020
2519	653	200	200	64545	-39020
2520	654	200	200	64545	-39020
2521	653	200	200	64563	-39018
2522	654	200	200	64563	-39018
2523	654	200	200	64563	-39018
2524	654	200	200	64578	-39018
2525	654	200	200	64578	-39016
2526	654	200	200	64578	-39016
2527	654	200	200	64592	-39016
2528	654	200	200	64592	-39014
2529	653	200	200	64592	-39014
2530	654	200	200	64606	-39014
2531	653	200	200	64606	-39011
2532	654	200	200	64606	-39011
2533	653	200	200	64619	-39011
2534	654	200	200	64619	-39008
2535	654	200	200	64619	-39008
2536	653	200	200	64632	-39008
2537	654	200	200	64632	-39004
2538	653	200	200	64632	-39004
2539	653	200	200	64646	-39004
2540	654	200	200	64646	-39000
2541	654	200	200	64646	-39000
2542	653	200	200	64661	-39000
2543	653	200	200	64661	-38997
2544	652	200	200	64661	-38997
2545	652	200	200	64676	-38997
2546	653	200	200	64676	-38993
2547	654	200	200	64676	-38993
2548	653	200	200	64692	-38993
2549	654	200	200	64692	-38988
2550	654	200	200	64692	-38988
2551	654	200	200	64708	-38988
2552	653	200	200	64708	-38984
2553	654	200	200	64708	-38984
2554	653	200	200	64726	-38984
2555	654	200	200	64726	-38979
2556	653	200	200	64726	-38979
2557	654	200	200	64743	-38979
2558	652	200	200	64743	-38974
2559	654	200	200	64743	-38974
2560	653	200	200	64760	-38974
2561	654	200	200	64760	-38968
2562	653	200	200	64760	-38968
2563	654	200	200	64778	-38968
2564	653	200	200	64778	-38962
2565	653	200	200	64778	-38962
2566	652	200	200	64797	-38962
2567	654	200	200	64797	-38955
2568	654	200	200	64797	-38955
2569	652	200	200	64814	-38955
2570	654	200	200	64814	-38947
2571	654	200	200	64814	-38947
2572	654	200	200	64830	-38947
2573	653	200	200	64830	-38939
2574	653	200	200	64830	-38939
2575	654	200	200	64846	-38939
2576	654	200	200	64846	-38931
2577	654	200	200	64846	-38931
2578	653	200	200	64863	-38931
2579	654	200	200	64863	-38922
2580	654	200	200	64863	-38922
2581	654	200	200	64881	-38922
2582	652	200	200	64881	-38914
2583	654	200	200	64881	-38914
2584	653	200	200	64897	-38914
2585	654	200	200	64897	-38906
2586	654	200	200	64897	-38906
2587	654	200	200	64914	-38906
2588	653	200	200	64914	-38898
2589	654	200	200	64914	-38898
2590	654	200	200	64929	-38898
2591	654	200	200	64929	-38890
2592	653	200	200	64929	-38890
2593	654	200	200	64943	-38890
2594	653	200	200	64943	-38883
2595	654	200	200	64943	-38883
2596	653	200	200	64956	-38883
2597	653	200	200	64956	-38875
2598	653	200	200	64956	-38875
2599	653	200	200	64968	-38875
2600	653	200	200	64968	-38868
2601	654	200	200	64968	-38868
2602	653	200	200	64968	-38868
2603	653	200	200	64980	-38861
2604	654	200	200	64980	-38861
2605	653	200	200	64980	-38861
2606	654	200	200	64994	-38853
2607	653	200	200	64994	-38853
2608	654	200	200	64994	-38853
2609	653	200	200	65009	-38845
2610	654	200	200	65009	-38845
2611	654	200	200	65009	-38845
2612	654	200	200	65024	-38836
2613	654	200	200	65024	-38836
2614	654	200	200	65024	-38836
2615	653	200	200	65040	-38826
2616	654	200	200	65040	-38826
2617	654	200	200	65040	-38826
2618	654	200	200	65057	-38817
2619	654	200	200	65057	-38817
2620	654	200	200	65057	-38817
2621	653	200	200	65074	-38808
2622	654	200	200	65074	-38808
2623	653	200	200	65074	-38808
2624	654	200	200	65090	-38801
2625	654	200	200	65090	-38801
2626	654	200	200	65090	-38801
2627	654	200	200	65108	-38793
2628	654	200	200	65108	-38793
2629	653	200	200	65108	-38793
2630	654	200	200	65127	-38785
2631	653	200	200	65127	-38785
2632	654	200	200	65127	-38785
2633	653	200	200	65143	-38777
2634	653	200	200	65143	-38777
2635	653	200	200	65143	-38777
2636	653	200	200	65159	-38768
2637	653	200	200	65159	-38768
2638	653	200	200	65159	-38768
2639	654	200	200	65176	-38760
2640	653	200	200	65176	-38760
2641	653	200	200	65176	-38760
2642	653	200	200	65191	-38760
2643	653	200	200	65191	-38752
2644	653	200	200	65191	-38752
2645	654	200	200	65206	-38752
2646	654	200	200	65206	-38745
2647	654	200	200	65206	-38745
2648	652	200	200	65222	-38745
2649	654	200	200	65222	-38739
2650	653	200	200	65222	-38739
2651	654	200	200	65238	-38739
2652	654	200	200	65238	-38734
2653	654	200	200	65238	-38734
2654	653	200	200	65254	-38734
2655	654	200	200	65254	-38728
2656	654	200	200	65254	-38728
2657	654	200	200	65267	-38728
2658	653	200	200	65267	-38722
2659	653	200	200	65267	-38722
2660	654	200	200	65278	-38722
2661	652	200	200	65278	-38716
2662	653	200	200	65278	-38716
2663	654	200	200	65290	-38716
2664	654	200	200	65290	-38712
2665	651	200	200	65290	-38712
2666	654	200	200	65302	-38712
2667	653	200	200	65302	-38707
2668	654	200	200	65302	-38707
2669	653	200	200	65315	-38707
2670	654	200	200	65315	-38703
2671	653	200	200	65315	-38703
2672	654	200	200	65326	-38703
2673	654	200	200	65326	-38700
2674	653	200	200	65326	-38700
2675	654	200	200	65339	-38700
2676	654	200	200	65339	-38696
2677	654	200	200	65339	-38696
2678	654	200	200	65352	-38696
2679	654	200	200	65352	-38693
2680	654	200	200	65352	-38693
2681	654	200	200	65367	-38693
2682	654	200	200	65367	-38691
2683	652	200	200	65367	-38691
2684	653	200	200	65385	-38691
2685	654	200	200	65385	-38690
2686	654	200	200	65385	-38690
2687	653	200	200	65401	-38690
2688	653	200	200	65401	-38688
2689	654	200	200	65401	-38688
2690	654	200	200	65421	-38688
2691	654	200	200	65421	-38686
2692	654	200	200	65421	-38686
2693	654	200	200	65439	-38686
2694	654	200	200	65439	-38684
2695	651	200	200	65439	-38684
2696	653	200	200	65455	-38684
2697	653	200	200	65455	-38683
2698	653	200	200	65455	-38683
2699	654	200	200	65472	-38683
2700	654	200	200	65472	-38681
2701	653	200	200	65472	-38681
2702	654	200	200	65489	-38681
2703	654	200	200	65489	-38680
2704	654	200	200	65489	-38680
2705	653	200	200	65506	-38680
2706	654	200	200	65506	-38679
2707	653	200	200	65506	-38679
2708	654	200	200	65523	-38679
2709	653	200	200	65523	-38677
2710	654	200	200	65523	-38677
2711	653	200	200	65540	-38677
2712	654	200	200	65540	-38675
2713	653	200	200	65540	-38675
2714	653	200	200	65557	-38675
2715	653	200	200	65557	-38673
2716	653	200	200	65557	-38673
2717	654	200	200	65574	-38673
2718	654	200	200	65574	-38670
2719	653	200	200	65574	-38670
2720	653	200	200	65574	-38670
2721	653	200	200	65589	-38667
2722	654	200	200	65589	-38667
2723	653	200	200	65589	-38667
2724	654	200	200	65603	-38664
2725	653	200	200	65603	-38664
2726	653	200	200	65603	-38664
2727	653	200	200	65616	-38662
2728	654	200	200	65616	-38662
2729	654	200	200	65616	-38662
2730	654	200	200	65630	-38659
2731	653	200	200	65630	-38659
2732	654	200	200	65630	-38659
2733	654	200	200	65642	-38655
2734	653	200	200	65642	-38655
2735	653	200	200	65642	-38655
2736	654	200	200	65653	-38652
2737	654	200	200	65653	-38652
2738	654	200	200	65653	-38652
2739	653	200	200	65664	-38648
2740	654	200	200	65664	-38648
2741	653	200	200	65664	-38648
2742	653	200	200	65675	-38644
2743	654	200	200	65675	-38644
2744	653	200	200	65675	-38644
2745	653	200	200	65688	-38639
2746	653	200	200	65688	-38639
2747	653	200	200	65688	-38639
2748	654	200	200	65700	-38635
2749	654	200	200	65700	-38635
2750	653	200	200	65700	-38635
2751	652	200	200	65712	-38631
2752	654	200	200	65712	-38631
2753	654	200	200	65712	-38631
2754	654	200	200	65726	-38626
2755	654	200	200	65726	-38626
2756	654	200	200	65726	-38626
2757	654	200	200	65738	-38626
2758	654	200	200	65738	-38622
2759	653	200	200	65738	-38622
2760	653	200	200	65753	-38622
2761	654	200	200	65753	-38616
2762	654	200	200	65753	-38616
2763	654	200	200	65769	-38616
2764	654	200	200	65769	-38611
2765	653	200	200	65769	-38611
2766	654	200	200	65782	-38611
2767	653	200	200	65782	-38604
2768	654	200	200	65782	-38604
2769	653	200	200	65797	-38604
2770	652	200	200	65797	-38598
2771	652	200	200	65797	-38598
2772	652	200	200	65813	-38598
2773	654	200	200	65813	-38591
2774	654	200	200	65813	-38591
2775	653	200	200	65829	-38591
2776	654	200	200	65829	-38585
2777	654	200	200	65829	-38585
2778	654	200	200	65843	-38585
2779	654	200	200	65843	-38578
2780	654	200	200	65843	-38578
2781	654	200	200	65856	-38578
2782	654	200	200	65856	-38572
2783	653	200	200	65856	-38572
2784	652	200	200	65869	-38572
2785	652	200	200	65869	-38567
2786	654	200	200	65869	-38567
2787	654	200	200	65883	-38567
2788	653	200	200	65883	-38562
2789	658	200	200	65883	-38562
2790	658	200	200	65896	-38562
2791	658	200	200	65896	-38556
2792	658	200	200	65896	-38556
2793	658	200	200	65908	-38556
2794	658	200	200	65908	-38550
2795	656	200	200	65908	-38550
2796	657	200	200	65920	-38550
2797	658	200	200	65920	-38543
2798	657	200	200	65920	-38543
2799	657	200	200	65933	-38543
2800	658	200	200	65933	-38536
2801	657	200	200	65933	-38536
2802	658	200	200	65945	-38536
2803	658	200	200	65945	-38530
2804	657	200	200	65945	-38530
2805	657	200	200	65955	-38530
2806	658	200	200	65955	-38523
2807	658	200	200	65955	-38523
2808	658	200	200	65963	-38523
2809	658	200	200	65963	-38516
2810	658	200	200	65963	-38516
2811	658	200	200	65969	-38516
2812	658	200	200	65969	-38509
2813	657	200	200	65969	-38509
2814	658	200	200	65975	-38509
2815	657	200	200	65975	-38502
2816	656	200	200	65975	-38502
2817	658	200	200	65982	-38502
2818	658	200	200	65982	-38495
2819	657	200	200	65982	-38495
2820	658	200	200	65990	-38495
2821	657	200	200	65990	-38488
2822	658	200	200	65990	-38488
2823	658	200	200	65999	-38488
2824	657	200	200	65999	-38481
2825	658	200	200	65999	-38481
2826	658	200	200	66009	-38481
2827	658	200	200	66009	-38474
2828	658	200	200	66009	-38474
2829	657	200	200	66018	-38474
2830	657	200	200	66018	-38467
2831	658	200	200	66018	-38467
2832	656	200	200	66027	-38467
2833	657	200	200	66027	-38460
2834	658	200	200	66027	-38460
2835	658	200	200	66037	-38460
2836	657	200	200	66037	-38454
2837	658	200	200	66037	-38454
2838	658	200	200	66037	-38454
2839	658	200	200	66048	-38448
2840	657	200	200	66048	-38448
2841	658	200	200	66048	-38448
2842	658	200	200	66061	-38443
2843	658	200	200	66061	-38443
2844	657	200	200	66061	-38443
2845	658	200	200	66073	-38438
2846	658	200	200	66073	-38438
2847	658	200	200	66073	-38438
2848	658	200	200	66086	-38432
2849	658	200	200	66086	-38432
2850	657	200	200	66086	-38432
2851	658	200	200	66099	-38427
2852	658	200	200	66099	-38427
2853	659	200	200	66099	-38427
2854	658	200	200	66112	-38423
2855	658	200	200	66112	-38423
2856	658	200	200	66112	-38423
2857	659	200	200	66124	-38419
2858	658	200	200	66124	-38419
2859	658	200	200	66124	-38419
2860	658	200	200	66137	-38415
2861	656	200	200	66137	-38415
2862	657	200	200	66137	-38415
2863	657	200	200	66149	-38412
2864	658	200	200	66149	-38412
2865	658	200	200	66149	-38412
2866	657	200	200	66161	-38409
2867	658	200	200	66161	-38409
2868	659	200	200	66161	-38409
2869	658	200	200	66174	-38405
2870	658	200	200	66174	-38405
2871	657	200	200	66174	-38405
2872	657	200	200	66188	-38405
2873	657	200	200	66188	-38402
2874	658	200	200	66188	-38402
2875	658	200	200	66201	-38402
2876	657	200	200	66201	-38399
2877	657	200	200	66201	-38399
2878	658	200	200	66216	-38399
2879	658	200	200	66216	-38397
2880	658	200	200	66216	-38397
2881	658	200	200	66229	-38397
2882	656	200	200	66229	-38396
2883	657	200	200	66229	-38396
2884	657	200	200	66241	-38396
2885	658	200	200	66241	-38395
2886	657	200	200	66241	-38395
2887	657	200	200	66253	-38395
2888	657	200	200	66253	-38393
2889	658	200	200	66253	-38393
2890	658	200	200	66266	-38393
2891	659	200	200	66266	-38392
2892	658	200	200	66266	-38392
2893	658	200	200	66277	-38392
2894	657	200	200	66277	-38391
2895	657	200	200	66277	-38391
2896	657	200	200	66288	-38391
2897	658	200	200	66288	-38390
2898	658	200	200	66288	-38390
2899	658	200	200	66299	-38390
2900	657	200	200	66299	-38389
2901	658	200	200	66299	-38389
2902	658	200	200	66307	-38389
2903	658	200	200	66307	-38387
2904	658	200	200	66307	-38387
2905	658	200	200	66316	-38387
2906	658	200	200	66316	-38386
2907	658	200	200	66316	-38386
2908	656	200	200	66324	-38386
2909	658	200	200	66324	-38385
2910	658	200	200	66324	-38385
2911	658	200	200	66333	-38385
2912	657	200	200	66333	-38384
2913	657	200	200	66333	-38384
2914	658	200	200	66343	-38384
2915	658	200	200	66343	-38383
2916	657	200	200	66343	-38383
2917	658	200	200	66356	-38383
2918	658	200	200	66356	-38382
2919	657	200	200	66356	-38382
2920	657	200	200	66368	-38382
2921	658	200	200	66368	-38380
2922	657	200	200	66368	-38380
2923	657	200	200	66381	-38380
2924	658	200	200	66381	-38379
2925	658	200	200	66381	-38379
2926	658	200	200	66396	-38379
2927	657	200	200	66396	-38378
2928	656	200	200	66396	-38378
2929	658	200	200	66410	-38378
2930	658	200	200	66410	-38377
2931	658	200	200	66410	-38377
2932	658	200	200	66424	-38377
2933	658	200	200	66424	-38375
2934	658	200	200	66424	-38375
2935	658	200	200	66439	-38375
2936	658	200	200	66439	-38374
2937	657	200	200	66439	-38374
2938	657	200	200	66456	-38374
2939	658	200	200	66456	-38373
2940	658	200	200	66456	-38373
2941	657	200	200	66474	-38373
2942	657	200	200	66474	-38372
2943	658	200	200	66474	-38372
2944	658	200	200	66488	-38372
2945	657	200	200	66488	-38371
2946	656	200	200	66488	-38371
2947	658	200	200	66503	-38371
2948	658	200	200	66503	-38370
2949	657	200	200	66503	-38370
2950	657	200	200	66518	-38370
2951	658	200	200	66518	-38369
2952	658	200	200	66518	-38369
2953	658	200	200	66532	-38369
2954	658	200	200	66532	-38368
2955	658	200	200	66532	-38368
2956	658	200	200	66532	-38368
2957	658	200	200	66544	-38368
2958	657	200	200	66544	-38368
2959	657	200	200	66544	-38368
2960	656	200	200	66557	-38367
2961	658	200	200	66557	-38367
2962	658	200	200	66557	-38367
2963	658	200	200	66571	-38366
2964	658	200	200	66571	-38366
2965	658	200	200	66571	-38366
2966	658	200	200	66585	-38366
2967	658	200	200	66585	-38366
2968	658	200	200	66585	-38366
2969	658	200	200	66598	-38365
2970	656	200	200	66598	-38365
2971	657	200	200	66598	-38365
2972	658	200	200	66609	-38364
2973	657	200	200	66609	-38364
2974	657	200	200	66609	-38364
2975	658	200	200	66620	-38364
2976	658	200	200	66620	-38364
2977	659	200	200	66620	-38364
2978	658	200	200	66630	-38363
2979	658	200	200	66630	-38363
2980	657	200	200	66630	-38363
2981	657	200	200	66638	-38363
2982	658	200	200	66638	-38363
2983	658	200	200	66638	-38363
2984	658	200	200	66646	-38362
2985	657	200	200	66646	-38362
2986	658	200	200	66646	-38362
2987	658	200	200	66653	-38361
2988	658	200	200	66653	-38361
2989	658	200	200	66653	-38361
2990	658	200	200	66659	-38361
2991	656	200	200	66659	-38361
2992	656	200	200	66659	-38361
2993	657	200	200	66666	-38360
2994	658	200	200	66666	-38360
2995	657	200	200	66666	-38360
2996	657	200	200	66674	-38360
2997	657	200	200	66674	-38360
2998	658	200	200	66674	-38360
2999	658	200	200	66682	-38360
3000	658	200	200	66682	-38359
3001	658	200	200	66682	-38359
3002	658	200	200	66692	-38359
3003	656	200	200	66692	-38358
3004	658	200	200	66692	-38358
3005	658	200	200	66702	-38358
3006	658	200	200	66702	-38358
3007	657	200	200	66702	-38358
3008	657	200	200	66713	-38358
3009	658	200	200	66713	-38357
3010	658	200	200	66713	-38357
3011	658	200	200	66725	-38357
3012	657	200	200	66725	-38357
3013	657	200	200	66725	-38357
3014	658	200	200	66737	-38357
3015	658	200	200	66737	-38356
3016	657	200	200	66737	-38356
3017	656	200	200	66749	-38356
3018	658	200	200	66749	-38356
3019	658	200	200	66749	-38356
3020	658	200	200	66764	-38356
3021	658	200	200	66764	-38355
3022	657	200	200	66764	-38355
3023	658	200	200	66778	-38355
3024	658	200	200	66778	-38355
3025	658	200	200	66778	-38355
3026	658	200	200	66792	-38355
3027	657	200	200	66792	-38354
3028	658	200	200	66792	-38354
3029	658	200	200	66805	-38354
3030	658	200	200	66805	-38354
3031	659	200	200	66805	-38354
3032	658	200	200	66819	-38354
3033	658	200	200	66819	-38353
3034	659	200	200	66819	-38353
3035	656	200	200	66832	-38353
3036	657	200	200	66832	-38353
3037	658	200	200	66832	-38353
3038	658	200	200	66846	-38353
3039	658	200	200	66846	-38352
3040	658	200	200	66846	-38352
3041	658	200	200	66859	-38352
3042	658	200	200	66859	-38352
3043	657	200	200	66859	-38352
3044	658	200	200	66872	-38352
3045	658	200	200	66872	-38351
3046	656	200	200	66872	-38351
3047	657	200	200	66885	-38351
3048	658	200	200	66885	-38351
3049	658	200	200	66885	-38351
3050	657	200	200	66898	-38351
3051	658	200	200	66898	-38350
3052	658	200	200	66898	-38350
3053	657	200	200	66911	-38350
3054	658	200	200	66911	-38350
3055	658	200	200	66911	-38350
3056	658	200	200	66925	-38350
3057	657	200	200	66925	-38349
3058	656	200	200	66925	-38349
3059	658	200	200	66937	-38349
3060	658	200	200	66937	-38348
3061	657	200	200	66937	-38348
3062	658	200	200	66949	-38348
3063	658	200	200	66949	-38348
3064	658	200	200	66949	-38348
3065	658	200	200	66961	-38348
3066	658	200	200	66961	-38347
3067	656	200	200	66961	-38347
3068	657	200	200	66973	-38347
3069	658	200	200	66973	-38347
3070	658	200	200	66973	-38347
3071	657	200	200	66973	-38347
3072	657	200	200	66984	-38345
3073	658	200	200	66984	-38345
3074	658	200	200	66984	-38345
3075	658	200	200	66993	-38344
3076	658	200	200	66993	-38344
3077	658	200	200	66993	-38344
3078	657	200	200	67001	-38341
3079	656	200	200	67001	-38341
3080	657	200	200	67001	-38341
3081	658	200	200	67007	-38339
3082	657	200	200	67007	-38339
3083	657	200	200	67007	-38339
3084	658	200	200	67013	-38336
3085	658	200	200	67013	-38336
3086	658	200	200	67013	-38336
3087	658	200	200	67019	-38333
3088	658	200	200	67019	-38333
3089	657	200	200	67019	-38333
3090	658	200	200	67026	-38330
3091	657	200	200	67026	-38330
3092	657	200	200	67026	-38330
3093	657	200	200	67035	-38327
3094	657	200	200	67035	-38327
3095	657	200	200	67035	-38327
3096	657	200	200	67045	-38323
3097	658	200	200	67045	-38323
3098	658	200	200	67045	-38323
3099	658	200	200	67055	-38319
3100	658	200	200	67055	-38319
3101	658	200	200	67055	-38319
3102	658	200	200	67065	-38315
3103	656	200	200	67065	-38315
3104	658	200	200	67065	-38315
3105	658	200	200	67076	-38310
3106	658	200	200	67076	-38310
3107	657	200	200	67076	-38310
3108	657	200	200	67088	-38305
3109	658	200	200	67088	-38305
3110	658	200	200	67088	-38305
3111	658	200	200	67101	-38300
3112	658	200	200	67101	-38300
3113	657	200	200	67101	-38300
3114	657	200	200	67113	-38300
3115	658	200	200	67113	-38294
3116	658	200	200	67113	-38294
3117	658	200	200	67125	-38294
3118	658	200	200	67125	-38289
3119	658	200	200	67125	-38289
3120	657	200	200	67137	-38289
3121	657	200	200	67137	-38284
3122	658	200	200	67137	-38284
3123	658	200	200	67151	-38284
3124	658	200	200	67151	-38279
3125	658	200	200	67151	-38279
3126	657	200	200	67165	-38279
3127	658	200	200	67165	-38273
3128	658	200	200	67165	-38273
3129	658	200	200	67179	-38273
3130	658	200	200	67179	-38266
3131	657	200	200	67179	-38266
3132	658	200	200	67190	-38266
3133	658	200	200	67190	-38257
3134	658	200	200	67190	-38257
3135	657	200	200	67202	-38257
3136	658	200	200	67202	-38248
3137	659	200	200	67202	-38248
3138	658	200	200	67215	-38248
3139	657	200	200	67215	-38241
3140	658	200	200	67215	-38241
3141	658	200	200	67228	-38241
3142	658	200	200	67228	-38234
3143	657	200	200	67228	-38234
3144	658	200	200	67239	-38234
3145	657	200	200	67239	-38226
3146	657	200	200	67239	-38226
3147	658	200	200	67250	-38226
3148	657	200	200	67250	-38218
3149	658	200	200	67250	-38218
3150	658	200	200	67262	-38218
3151	658	200	200	67262	-38212
3152	658	200	200	67262	-38212
3153	658	200	200	67274	-38212
3154	658	200	200	67274	-38204
3155	658	200	200	67274	-38204
3156	657	200	200	67286	-38204
3157	658	200	200	67286	-38197
3158	658	200	200	67286	-38197
3159	656	200	200	67296	-38197
3160	658	200	200	67296	-38190
3161	658	200	200	67296	-38190
3162	657	200	200	67306	-38190
3163	657	200	200	67306	-38183
3164	658	200	200	67306	-38183
3165	658	200	200	67314	-38183
3166	659	200	200	67314	-38175
3167	658	200	200	67314	-38175
3168	658	200	200	67322	-38175
3169	657	200	200	67322	-38167
3170	656	200	200	67322	-38167
3171	657	200	200	67329	-38167
3172	658	200	200	67329	-38160
3173	657	200	200	67329	-38160
3174	657	200	200	67337	-38160
3175	657	200	200	67337	-38153
3176	658	200	200	67337	-38153
3177	658	200	200	67345	-38153
3178	658	200	200	67345	-38145
3179	658	200	200	67345	-38145
3180	658	200	200	67353	-38145
3181	657	200	200	67353	-38137
3182	657	200	200	67353	-38137
3183	657	200	200	67361	-38137
3184	659	200	200	67361	-38127
3185	657	200	200	67361	-38127
3186	658	200	200	67369	-38127
3187	658	200	200	67369	-38118
3188	659	200	200	67369	-38118
3189	658	200	200	67369	-38118
3190	658	200	200	67379	-38110
3191	658	200	200	67379	-38110
3192	658	200	200	67379	-38110
3193	657	200	200	67389	-38103
3194	657	200	200	67389	-38103
3195	657	200	200	67389	-38103
3196	658	200	200	67400	-38095
3197	657	200	200	67400	-38095
3198	657	200	200	67400	-38095
3199	658	200	200	67412	-38088
3200	658	200	200	67412	-38088
3201	658	200	200	67412	-38088
3202	658	200	200	67426	-38080
3203	658	200	200	67426	-38080
3204	658	200	200	67426	-38080
3205	658	200	200	67440	-38073
3206	657	200	200	67440	-38073
3207	658	200	200	67440	-38073
3208	657	200	200	67453	-38067
3209	658	200	200	67453	-38067
3210	657	200	200	67453	-38067
3211	657	200	200	67468	-38061
3212	658	200	200	67468	-38061
3213	658	200	200	67468	-38061
3214	658	200	200	67483	-38055
3215	658	200	200	67483	-38055
3216	657	200	200	67483	-38055
3217	658	200	200	67496	-38049
3218	656	200	200	67496	-38049
3219	658	200	200	67496	-38049
3220	658	200	200	67510	-38043
3221	658	200	200	67510	-38043
3222	657	200	200	67510	-38043
3223	657	200	200	67523	-38039
3224	658	200	200	67523	-38039
3225	658	200	200	67523	-38039
3226	658	200	200	67537	-38036
3227	657	200	200	67537	-38036
3228	658	200	200	67537	-38036
3229	658	200	200	67552	-38033
3230	657	200	200	67552	-38033
3231	657	200	200	67552	-38033
3232	659	200	200	67567	-38033
3233	658	200	200	67567	-38030
3234	657	200	200	67567	-38030
3235	658	200	200	67580	-38030
3236	658	200	200	67580	-38026
3237	657	200	200	67580	-38026
3238	658	200	200	67594	-38026
3239	658	200	200	67594	-38023
3240	658	200	200	67594	-38023
3241	658	200	200	67608	-38023
3242	658	200	200	67608	-38020
3243	658	200	200	67608	-38020
3244	658	200	200	67622	-38020
3245	657	200	200	67622	-38016
3246	658	200	200	67622	-38016
3247	658	200	200	67635	-38016
3248	658	200	200	67635	-38014
3249	658	200	200	67635	-38014
3250	657	200	200	67647	-38014
3251	657	200	200	67647	-38011
3252	658	200	200	67647	-38011
3253	656	200	200	67659	-38011
3254	657	200	200	67659	-38008
3255	658	200	200	67659	-38008
3256	657	200	200	67670	-38008
3257	657	200	200	67670	-38004
3258	658	200	200	67670	-38004
3259	658	200	200	67680	-38004
3260	658	200	200	67680	-38001
3261	658	200	200	67680	-38001
3262	657	200	200	67688	-38001
3263	658	200	200	67688	-37997
3264	658	200	200	67688	-37997
3265	658	200	200	67694	-37997
3266	657	200	200	67694	-37992
3267	658	200	200	67694	-37992
3268	658	200	200	67698	-37992
3269	658	200	200	67698	-37988
3270	658	200	200	67698	-37988
3271	658	200	200	67703	-37988
3272	656	200	200	67703	-37982
3273	658	200	200	67703	-37982
3274	657	200	200	67708	-37982
3275	657	200	200	67708	-37976
3276	657	200	200	67708	-37976
3277	658	200	200	67713	-37976
3278	658	200	200	67713	-37969
3279	658	200	200	67713	-37969
3280	658	200	200	67719	-37969
3281	658	200	200	67719	-37962
3282	658	200	200	67719	-37962
3283	658	200	200	67727	-37962
3284	658	200	200	67727	-37955
3285	658	200	200	67727	-37955
3286	657	200	200	67735	-37955
3287	658	200	200	67735	-37948
3288	658	200	200	67735	-37948
3289	658	200	200	67743	-37948
3290	658	200	200	67743	-37941
3291	658	200	200	67743	-37941
3292	658	200	200	67750	-37941
3293	658	200	200	67750	-37935
3294	657	200	200	67750	-37935
3295	658	200	200	67758	-37935
3296	657	200	200	67758	-37929
3297	658	200	200	67758	-37929
3298	657	200	200	67767	-37929
3299	658	200	200	67767	-37923
3300	657	200	200	67767	-37923
3301	658	200	200	67776	-37923
3302	658	200	200	67776	-37915
3303	658	200	200	67776	-37915
3304	658	200	200	67785	-37915
3305	658	200	200	67785	-37907
3306	658	200	200	67785	-37907
3307	658	200	200	67796	-37907
3308	658	200	200	67796	-37899
3309	658	200	200	67796	-37899
3310	658	200	200	67808	-37899
3311	657	200	200	67808	-37890
3312	658	200	200	67808	-37890
3313	658	200	200	67808	-37890
3314	658	200	200	67819	-37880
3315	657	200	200	67819	-37880
3316	658	200	200	67819	-37880
3317	658	200	200	67828	-37870
3318	658	200	200	67828	-37870
3319	657	200	200	67828	-37870
3320	658	200	200	67838	-37860
3321	657	200	200	67838	-37860
3322	658	200	200	67838	-37860
3323	657	200	200	67853	-37851
3324	659	200	200	67853	-37851
3325	658	200	200	67853	-37851
3326	657	200	200	67864	-37840
3327	658	200	200	67864	-37840
3328	658	200	200	67864	-37840
3329	658	200	200	67875	-37829
3330	658	200	200	67875	-37829
3331	658	200	200	67875	-37829
3332	657	200	200	67886	-37819
3333	658	200	200	67886	-37819
3334	657	200	200	67886	-37819
3335	658	200	200	67896	-37808
3336	658	200	200	67896	-37808
3337	658	200	200	67896	-37808
3338	658	200	200	67906	-37798
3339	658	200	200	67906	-37798
3340	658	200	200	67906	-37798
3341	658	200	200	67916	-37788
3342	658	200	200	67916	-37788
3343	658	200	200	67916	-37788
3344	658	200	200	67926	-37780
3345	657	200	200	67926	-37780
3346	658	200	200	67926	-37780
3347	658	200	200	67936	-37772
3348	658	200	200	67936	-37772
3349	658	200	200	67936	-37772
3350	658	200	200	67946	-37772
3351	657	200	200	67946	-37764
3352	658	200	200	67946	-37764
3353	658	200	200	67955	-37764
3354	658	200	200	67955	-37758
3355	657	200	200	67955	-37758
3356	658	200	200	67964	-37758
3357	658	200	200	67964	-37752
3358	658	200	200	67964	-37752
3359	658	200	200	67974	-37752
3360	658	200	200	67974	-37746
3361	658	200	200	67974	-37746
3362	658	200	200	67983	-37746
3363	658	200	200	67983	-37739
3364	658	200	200	67983	-37739
3365	658	200	200	67991	-37739
3366	658	200	200	67991	-37732
3367	658	200	200	67991	-37732
3368	657	200	200	67997	-37732
3369	657	200	200	67997	-37726
3370	658	200	200	67997	-37726
3371	657	200	200	68003	-37726
3372	658	200	200	68003	-37720
3373	658	200	200	68003	-37720
3374	657	200	200	68009	-37720
3375	657	200	200	68009	-37715
3376	658	200	200	68009	-37715
3377	657	200	200	68013	-37715
3378	657	200	200	68013	-37709
3379	658	200	200	68013	-37709
3380	658	200	200	68016	-37709
3381	658	200	200	68016	-37704
3382	658	200	200	68016	-37704
3383	658	200	200	68019	-37704
3384	655	200	200	68019	-37700
3385	657	200	200	68019	-37700
3386	658	200	200	68022	-37700
3387	658	200	200	68022	-37697
3388	656	200	200	68022	-37697
3389	657	200	200	68026	-37697
3390	658	200	200	68026	-37694
3391	658	200	200	68026	-37694
3392	658	200	200	68030	-37694
3393	658	200	200	68030	-37692
3394	658	200	200	68030	-37692
3395	658	200	200	68033	-37692
3396	658	200	200	68033	-37690
3397	658	200	200	68033	-37690
3398	658	200	200	68037	-37690
3399	658	200	200	68037	-37688
3400	657	200	200	68037	-37688
3401	657	200	200	68039	-37688
3402	657	200	200	68039	-37686
3403	658	200	200	68039	-37686
3404	658	200	200	68042	-37686
3405	658	200	200	68042	-37685
3406	658	200	200	68042	-37685
3407	658	200	200	68044	-37685
3408	657	200	200	68044	-37682
3409	658	200	200	68044	-37682
3410	658	200	200	68045	-37682
3411	658	200	200	68045	-37680
3412	658	200	200	68045	-37680
3413	656	200	200	68048	-37680
3414	657	200	200	68048	-37678
3415	658	200	200	68048	-37678
3416	658	200	200	68050	-37678
3417	657	200	200	68050	-37676
3418	658	200	200	68050	-37676
3419	657	200	200	68054	-37676
3420	658	200	200	68054	-37674
3421	657	200	200	68054	-37674
3422	658	200	200	68058	-37674
3423	659	200	200	68058	-37672
3424	658	200	200	68058	-37672
3425	657	200	200	68062	-37672
3426	658	200	200	68062	-37670
3427	656	200	200	68062	-37670
3428	658	200	200	68068	-37670
3429	657	200	200	68068	-37668
3430	657	200	200	68068	-37668
3431	658	200	200	68068	-37668
3432	658	200	200	68074	-37666
3433	658	200	200	68074	-37666
3434	658	200	200	68074	-37666
3435	658	200	200	68081	-37666
3436	658	200	200	68081	-37666
3437	658	200	200	68081	-37666
3438	658	200	200	68088	-37665
3439	658	200	200	68088	-37665
3440	657	200	200	68088	-37665
3441	658	200	200	68095	-37664
3442	657	200	200	68095	-37664
3443	658	200	200	68095	-37664
3444	657	200	200	68103	-37663
3445	658	200	200	68103	-37663
3446	658	200	200	68103	-37663
3447	658	200	200	68111	-37662
3448	657	200	200	68111	-37662
3449	657	200	200	68111	-37662
3450	658	200	200	68119	-37661
3451	657	200	200	68119	-37661
3452	657	200	200	68119	-37661
3453	658	200	200	68129	-37660
3454	658	200	200	68129	-37660
3455	658	200	200	68129	-37660
3456	658	200	200	68139	-37659
3457	657	200	200	68139	-37659
3458	658	200	200	68139	-37659
3459	657	200	200	68148	-37658
3460	658	200	200	68148	-37658
3461	658	200	200	68148	-37658
3462	659	200	200	68158	-37657
3463	658	200	200	68158	-37657
3464	658	200	200	68158	-37657
3465	658	200	200	68167	-37656
3466	658	200	200	68167	-37656
3467	657	200	200	68167	-37656
3468	658	200	200	68176	-37656
3469	658	200	200	68176	-37655
3470	658	200	200	68176	-37655
3471	658	200	200	68186	-37655
3472	658	200	200	68186	-37654
3473	657	200	200	68186	-37654
3474	658	200	200	68195	-37654
3475	657	200	200	68195	-37652
3476	658	200	200	68195	-37652
3477	657	200	200	68205	-37652
3478	657	200	200	68205	-37650
3479	658	200	200	68205	-37650
3480	658	200	200	68214	-37650
3481	657	200	200	68214	-37648
3482	658	200	200	68214	-37648
3483	658	200	200	68223	-37648
3484	658	200	200	68223	-37646
3485	658	200	200	68223	-37646
3486	658	200	200	68233	-37646
3487	657	200	200	68233	-37644
3488	657	200	200	68233	-37644
3489	658	200	200	68243	-37644
3490	658	200	200	68243	-37641
3491	657	200	200	68243	-37641
3492	657	200	200	68253	-37641
3493	658	200	200	68253	-37639
3494	658	200	200	68253	-37639
3495	658	200	200	68264	-37639
3496	658	200	200	68264	-37636
3497	658	200	200	68264	-37636
3498	658	200	200	68274	-37636
3499	656	200	200	68274	-37632
3500	657	200	200	68274	-37632
3501	658	200	200	68283	-37632
3502	658	200	200	68283	-37629
3503	657	200	200	68283	-37629
3504	657	200	200	68291	-37629
3505	658	200	200	68291	-37625
3506	658	200	200	68291	-37625
3507	658	200	200	68300	-37625
3508	659	200	200	68300	-37621
3509	658	200	200	68300	-37621
3510	658	200	200	68310	-37621
3511	657	200	200	68310	-37617
3512	657	200	200	68310	-37617
3513	658	200	200	68318	-37617
3514	658	200	200	68318	-37612
3515	657	200	200	68318	-37612
3516	657	200	200	68324	-37612
3517	657	200	200	68324	-37608
3518	658	200	200	68324	-37608
3519	658	200	200	68331	-37608
3520	658	200	200	68331	-37603
3521	658	200	200	68331	-37603
3522	658	200	200	68335	-37603
3523	658	200	200	68335	-37598
3524	657	200	200	68335	-37598
3525	657	200	200	68339	-37598
3526	658	200	200	68339	-37593
3527	658	200	200	68339	-37593
3528	657	200	200	68341	-37593
3529	657	200	200	68341	-37588
3530	658	200	200	68341	-37588
3531	658	200	200	68343	-37588
3532	657	200	200	68343	-37584
3533	659	200	200	68343	-37584
3534	658	200	200	68345	-37584
3535	657	200	200	68345	-37580
3536	658	200	200	68345	-37580
3537	658	200	200	68347	-37580
3538	658	200	200	68347	-37575
3539	658	200	200	68347	-37575
3540	658	200	200	68348	-37575
3541	658	200	200	68348	-37571
3542	658	200	200	68348	-37571
3543	657	200	200	68349	-37571
3544	657	200	200	68349	-37566
3545	658	200	200	68349	-37566
3546	657	200	200	68349	-37566
3547	658	200	200	68351	-37560
3548	658	200	200	68351	-37560
3549	658	200	200	68351	-37560
3550	658	200	200	68352	-37554
3551	657	200	200	68352	-37554
3552	658	200	200	68352	-37554
3553	657	200	200	68353	-37548
3554	658	200	200	68353	-37548
3555	658	200	200	68353	-37548
3556	658	200	200	68354	-37541
3557	658	200	200	68354	-37541
3558	658	200	200	68354	-37541
3559	657	200	200	68355	-37535
3560	658	200	200	68355	-37535
3561	658	200	200	68355	-37535
3562	658	200	200	68356	-37529
3563	658	200	200	68356	-37529
3564	657	200	200	68356	-37529
3565	657	200	200	68356	-37523
3566	658	200	200	68356	-37523
3567	658	200	200	68356	-37523
3568	657	200	200	68357	-37518
3569	658	200	200	68357	-37518
3570	657	200	200	68357	-37518
3571	658	200	200	68358	-37513
3572	657	200	200	68358	-37513
3573	657	200	200	68358	-37513
3574	658	200	200	68358	-37506
3575	658	200	200	68358	-37506
3576	658	200	200	68358	-37506
3577	658	200	200	68359	-37500
3578	657	200	200	68359	-37500
3579	658	200	200	68359	-37500
3580	657	200	200	68359	-37493
3581	658	200	200	68359	-37493
3582	658	200	200	68359	-37493
3583	658	200	200	68360	-37487
3584	657	200	200	68360	-37487
3585	657	200	200	68360	-37487
3586	657	200	200	68360	-37487
3587	659	200	200	68360	-37481
3588	658	200	200	68360	-37481
3589	658	200	200	68361	-37481
3590	657	200	200	68361	-37474
3591	658	200	200	68361	-37474
3592	657	200	200	68361	-37474
3593	658	200	200	68361	-37467
3594	658	200	200	68361	-37467
3595	658	200	200	68361	-37467
3596	658	200	200	68361	-37461
3597	658	200	200	68361	-37461
3598	658	200	200	68362	-37461
3599	658	200	200	68362	-37454
3600	658	200	200	68362	-37454
3601	658	200	200	68362	-37454
3602	657	200	200	68362	-37447
3603	658	200	200	68362	-37447
3604	658	200	200	68362	-37447
3605	658	200	200	68362	-37441
3606	658	200	200	68362	-37441
3607	658	200	200	68363	-37441
3608	658	200	200	68363	-37435
3609	658	200	200	68363	-37435
3610	658	200	200	68363	-37435
3611	658	200	200	68363	-37429
3612	657	200	200	68363	-37429
3613	658	200	200	68363	-37429
3614	657	200	200	68363	-37422
3615	659	200	200	68363	-37422
3616	657	200	200	68364	-37422
3617	658	200	200	68364	-37416
3618	658	200	200	68364	-37416
3619	658	200	200	68364	-37416
3620	657	200	200	68364	-37411
3621	657	200	200	68364	-37411
3622	657	200	200	68364	-37411
3623	658	200	200	68364	-37408
3624	658	200	200	68364	-37408
3625	657	200	200	68364	-37408
3626	658	200	200	68364	-37405
3627	657	200	200	68364	-37405
3628	658	200	200	68365	-37405
3629	656	200	200	68365	-37402
3630	658	200	200	68365	-37402
3631	658	200	200	68365	-37402
3632	658	200	200	68365	-37399
3633	658	200	200	68365	-37399
3634	658	200	200	68365	-37399
3635	658	200	200	68365	-37395
3636	658	200	200	68365	-37395
3637	657	200	200	68365	-37395
3638	658	200	200	68365	-37392
3639	657	200	200	68365	-37392
3640	658	200	200	68365	-37392
3641	657	200	200	68365	-37388
3642	658	200	200	68365	-37388
3643	658	200	200	68365	-37388
3644	657	200	200	68365	-37384
3645	658	200	200	68365	-37384
3646	657	200	200	68365	-37384
3647	657	200	200	68365	-37379
3648	658	200	200	68365	-37379
3649	658	200	200	68366	-37379
3650	657	200	200	68366	-37375
3651	658	200	200	68366	-37375
3652	658	200	200	68366	-37375
3653	658	200	200	68366	-37371
3654	658	200	200	68366	-37371
3655	658	200	200	68366	-37371
3656	658	200	200	68366	-37368
3657	658	200	200	68366	-37368
3658	658	200	200	68366	-37368
3659	658	200	200	68366	-37365
3660	658	200	200	68366	-37365
3661	658	200	200	68366	-37365
3662	658	200	200	68366	-37362
3663	658	200	200	68366	-37362
3664	657	200	200	68366	-37362
3665	658	200	200	68366	-37358
3666	658	200	200	68366	-37358
3667	658	200	200	68366	-37358
3668	658	200	200	68366	-37355
3669	658	200	200	68366	-37355
3670	658	200	200	68366	-37355
3671	658	200	200	68367	-37352
3672	657	200	200	68367	-37352
3673	658	200	200	68367	-37352
3674	658	200	200	68367	-37350
3675	657	200	200	68367	-37350
3676	657	200	200	68367	-37350
3677	657	200	200	68367	-37348
3678	657	200	200	68367	-37348
3679	657	200	200	68367	-37348
3680	658	200	200	68367	-37346
3681	657	200	200	68367	-37346
3682	658	200	200	68367	-37346
3683	658	200	200	68367	-37344
3684	658	200	200	68367	-37344
3685	658	200	200	68367	-37344
3686	658	200	200	68367	-37342
3687	657	200	200	68367	-37342
3688	658	200	200	68367	-37342
3689	658	200	200	68367	-37341
3690	658	200	200	68367	-37341
3691	657	200	200	68367	-37341
3692	658	200	200	68367	-37339
3693	658	200	200	68367	-37339
3694	657	200	200	68367	-37339
3695	657	200	200	68367	-37338
3696	658	200	200	68367	-37338
3697	658	200	200	68367	-37338
3698	657	200	200	68367	-37336
3699	658	200	200	68367	-37336
3700	658	200	200	68367	-37336
3701	658	200	200	68368	-37336
3702	657	200	200	68368	-37335
3703	658	200	200	68368	-37335
3704	657	200	200	68368	-37335
3705	658	200	200	68368	-37334
3706	657	200	200	68368	-37334
3707	658	200	200	68368	-37334
3708	657	200	200	68368	-37333
3709	658	200	200	68368	-37333
3710	656	200	200	68368	-37333
3711	658	200	200	68368	-37331
3712	658	200	200	68368	-37331
3713	658	200	200	68368	-37331
3714	658	200	200	68368	-37330
3715	658	200	200	68368	-37330
3716	657	200	200	68368	-37330
3717	658	200	200	68368	-37329
3718	658	200	200	68368	-37329
3719	658	200	200	68368	-37329
3720	656	200	200	68368	-37327
3721	658	200	200	68368	-37327
3722	657	200	200	68368	-37327
3723	657	200	200	68368	-37326
3724	657	200	200	68368	-37326
3725	659	200	200	68368	-37326
3726	658	200	200	68368	-37325
3727	658	200	200	68368	-37325
3728	657	200	200	68368	-37325
3729	657	200	200	68368	-37323
3730	658	200	200	68368	-37323
3731	658	200	200	68368	-37323
3732	656	200	200	68368	-37322
3733	658	200	200	68368	-37322
3734	658	200	200	68368	-37322
3735	658	200	200	68368	-37321
3736	657	200	200	68368	-37321
3737	658	200	200	68369	-37321
3738	658	200	200	68369	-37319
3739	658	200	200	68369	-37319
3740	657	200	200	68369	-37319
3741	658	200	200	68369	-37318
3742	656	200	200	68369	-37318
3743	658	200	200	68369	-37318
3744	657	200	200	68369	-37317
3745	658	200	200	68369	-37317
3746	658	200	200	68369	-37317
3747	657	200	200	68369	-37314
3748	658	200	200	68369	-37314
3749	658	200	200	68369	-37314
3750	658	200	200	68369	-37310
3751	659	200	200	68369	-37310
3752	658	200	200	68369	-37310
3753	658	200	200	68369	-37306
3754	658	200	200	68369	-37306
3755	658	200	200	68369	-37306
3756	657	200	200	68369	-37302
3757	658	200	200	68369	-37302
3758	657	200	200	68369	-37302
3759	657	200	200	68369	-37296
3760	657	200	200	68369	-37296
3761	658	200	200	68369	-37296
3762	657	200	200	68369	-37291
3763	657	200	200	68369	-37291
3764	658	200	200	68369	-37291
3765	658	200	200	68369	-37286
3766	657	200	200	68369	-37286
3767	656	200	200	68369	-37286
3768	658	200	200	68369	-37281
3769	658	200	200	68369	-37281
3770	658	200	200	68369	-37281
3771	658	200	200	68369	-37276
3772	657	200	200	68369	-37276
3773	658	200	200	68369	-37276
3774	658	200	200	68369	-37270
3775	657	200	200	68369	-37270
3776	658	200	200	68370	-37270
3777	657	200	200	68370	-37264
3778	656	200	200	68370	-37264
3779	658	200	200	68370	-37264
3780	658	200	200	68370	-37258
3781	657	200	200	68370	-37258
3782	659	200	200	68370	-37258
3783	657	200	200	68370	-37252
3784	657	200	200	68370	-37252
3785	658	200	200	68370	-37252
3786	657	200	200	68370	-37245
3787	658	200	200	68370	-37245
3788	658	200	200	68370	-37245
3789	657	200	200	68370	-37238
3790	658	200	200	68370	-37238
3791	658	200	200	68370	-37238
3792	657	200	200	68370	-37232
3793	659	200	200	68370	-37232
3794	657	200	200	68370	-37232
3795	657	200	200	68370	-37226
3796	658	200	200	68370	-37226
3797	657	200	200	68370	-37226
3798	656	200	200	68370	-37219
3799	658	200	200	68370	-37219
3800	658	200	200	68370	-37219
3801	658	200	200	68370	-37211
3802	657	200	200	68370	-37211
3803	658	200	200	68370	-37211
3804	658	200	200	68370	-37204
3805	658	200	200	68370	-37204
3806	658	200	200	68370	-37204
3807	658	200	200	68370	-37195
3808	656	200	200	68370	-37195
3809	656	200	200	68370	-37195
3810	657	200	200	68370	-37187
3811	658	200	200	68370	-37187
3812	657	200	200	68370	-37187
3813	656	200	200	68370	-37178
3814	658	200	200	68370	-37178
3815	658	200	200	68370	-37178
3816	658	200	200	68370	-37178
3817	658	200	200	68370	-37169
3818	658	200	200	68370	-37169
3819	658	200	200	68371	-37169
3820	658	200	200	68371	-37159
3821	657	200	200	68371	-37159
3822	658	200	200	68371	-37159
3823	657	200	200	68371	-37151
3824	657	200	200	68371	-37151
3825	658	200	200	68371	-37151
3826	659	200	200	68371	-37143
3827	659	200	200	68371	-37143
3828	658	200	200	68371	-37143
3829	658	200	200	68371	-37134
3830	657	200	200	68371	-37134
3831	657	200	200	68371	-37134
3832	656	200	200	68371	-37126
3833	658	200	200	68371	-37126
3834	658	200	200	68371	-37126
3835	657	200	200	68371	-37117
3836	657	200	200	68371	-37117
3837	657	200	200	68371	-37117
3838	658	200	200	68371	-37109
3839	658	200	200	68371	-37109
3840	658	200	200	68371	-37109
3841	658	200	200	68371	-37100
3842	656	200	200	68371	-37100
3843	656	200	200	68371	-37100
3844	657	200	200	68371	-37092
3845	657	200	200	68371	-37092
3846	658	200	200	68371	-37092
3847	657	200	200	68371	-37083
3848	658	200	200	68371	-37083
3849	658	200	200	68371	-37083
3850	658	200	200	68371	-37075
3851	658	200	200	68371	-37075
3852	658	200	200	68371	-37075
3853	658	200	200	68371	-37067
3854	657	200	200	68371	-37067
3855	658	200	200	68371	-37067
3856	657	200	200	68371	-37060
3857	657	200	200	68371	-37060
3858	658	200	200	68371	-37060
3859	657	200	200	68371	-37054
3860	658	200	200	68371	-37054
3861	658	200	200	68372	-37054
3862	657	200	200	68372	-37048
3863	658	200	200	68372	-37048
3864	658	200	200	68372	-37048
3865	657	200	200	68372	-37042
3866	657	200	200	68372	-37042
3867	658	200	200	68372	-37042
3868	658	200	200	68372	-37035
3869	658	200	200	68372	-37035
3870	657	200	200	68372	-37035
3871	658	200	200	68372	-37028
3872	658	200	200	68372	-37028
3873	658	200	200	68372	-37028
3874	658	200	200	68372	-37022
3875	658	200	200	68372	-37022
3876	658	200	200	68372	-37022
3877	658	200	200	68372	-37017
3878	656	200	200	68372	-37017
3879	658	200	200	68372	-37017
3880	658	200	200	68372	-37012
3881	657	200	200	68372	-37012
3882	658	200	200	68372	-37012
3883	658	200	200	68372	-37007
3884	658	200	200	68372	-37007
3885	658	200	200	68372	-37007
3886	658	200	200	68372	-37003
3887	658	200	200	68372	-37003
3888	658	200	200	68372	-37003
3889	658	200	200	68372	-37000
3890	657	200	200	68372	-37000
3891	658	200	200	68372	-37000
3892	657	200	200	68372	-36998
3893	658	200	200	68372	-36998
3894	658	200	200	68372	-36998
3895	658	200	200	68372	-36996
3896	658	200	200	68372	-36996
3897	658	200	200	68372	-36996
3898	658	200	200	68372	-36995
3899	658	200	200	68372	-36995
3900	658	200	200	68372	-36995
3901	657	200	200	68372	-36995
3902	659	200	200	68372	-36995
3903	658	200	200	68372	-36995
3904	658	200	200	68372	-36994
3905	658	200	200	68372	-36994
3906	658	200	200	68372	-36994
3907	657	200	200	68372	-36993
3908	658	200	200	68372	-36993
3909	658	200	200	68372	-36993
3910	658	200	200	68372	-36992
3911	657	200	200	68372	-36992
3912	658	200	200	68372	-36992
3913	657	200	200	68373	-36990
3914	659	200	200	68373	-36990
3915	658	200	200	68373	-36990
3916	658	200	200	68373	-36989
3917	656	200	200	68373	-36989
3918	657	200	200	68373	-36989
3919	658	200	200	68373	-36987
3920	657	200	200	68373	-36987
3921	657	200	200	68373	-36987
3922	657	200	200	68373	-36985
3923	658	200	200	68373	-36985
3924	658	200	200	68373	-36985
3925	658	200	200	68373	-36983
3926	658	200	200	68373	-36983
3927	657	200	200	68373	-36983
3928	658	200	200	68373	-36981
3929	658	200	200	68373	-36981
3930	658	200	200	68373	-36981
3931	658	200	200	68373	-36978
3932	658	200	200	68373	-36978
3933	658	200	200	68373	-36978
3934	658	200	200	68373	-36974
3935	659	200	200	68373	-36974
3936	659	200	200	68373	-36974
3937	659	200	200	68373	-36971
3938	658	200	200	68373	-36971
3939	657	200	200	68373	-36971
3940	657	200	200	68373	-36971
3941	658	200	200	68373	-36967
3942	658	200	200	68373	-36967
3943	658	200	200	68373	-36967
3944	657	200	200	68373	-36963
3945	658	200	200	68373	-36963
3946	658	200	200	68373	-36963
3947	658	200	200	68373	-36958
3948	658	200	200	68373	-36958
3949	658	200	200	68373	-36958
3950	658	200	200	68373	-36954
3951	658	200	200	68373	-36954
3952	658	200	200	68373	-36954
3953	658	200	200	68373	-36949
3954	658	200	200	68373	-36949
3955	658	200	200	68374	-36949
3956	658	200	200	68374	-36944
3957	657	200	200	68374	-36944
3958	658	200	200	68374	-36944
3959	657	200	200	68374	-36939
3960	658	200	200	68374	-36939
3961	658	200	200	68374	-36939
3962	658	200	200	68374	-36934
3963	658	200	200	68374	-36934
3964	657	200	200	68374	-36934
3965	657	200	200	68374	-36927
3966	658	200	200	68374	-36927
3967	657	200	200	68374	-36927
3968	657	200	200	68374	-36921
3969	658	200	200	68374	-36921
3970	658	200	200	68374	-36921
3971	659	200	200	68374	-36914
3972	657	200	200	68374	-36914
3973	658	200	200	68374	-36914
3974	658	200	200	68374	-36907
3975	657	200	200	68374	-36907
3976	657	200	200	68374	-36907
3977	658	200	200	68374	-36900
3978	658	200	200	68374	-36900
3979	658	200	200	68374	-36900
3980	657	200	200	68374	-36893
3981	657	200	200	68374	-36893
3982	657	200	200	68374	-36893
3983	657	200	200	68374	-36886
3984	657	200	200	68374	-36886
3985	658	200	200	68374	-36886
3986	657	200	200	68374	-36880
3987	658	200	200	68374	-36880
3988	658	200	200	68374	-36880
3989	658	200	200	68374	-36874
3990	658	200	200	68374	-36874
3991	658	200	200	68374	-36874
3992	657	200	200	68374	-36868
3993	658	200	200	68374	-36868
3994	658	200	200	68374	-36868
3995	658	200	200	68374	-36861
3996	658	200	200	68374	-36861
3997	658	200	200	68374	-36861
3998	658	200	200	68374	-36853
3999	658	200	200	68374	-36853
4000	656	0	200	68374	-36853
4001	657	0	200	68374	-36845
4002	657	0	200	68374	-36845
4003	657	0	200	68374	-36845
4004	658	0	200	68374	-36855
4005	658	0	200	68374	-36855
4006	657	0	200	68374	-36855
4007	658	0	200	68374	-36893
4008	658	0	200	68374	-36893
4009	658	0	200	68374	-36893
4010	658	0	200	68374	-36961
4011	658	0	200	68374	-36961
4012	657	0	200	68375	-36961
4013	658	0	200	68375	-37056
4014	659	0	200	68375	-37056
4015	656	0	200	68375	-37056
4016	657	0	200	68375	-37171
4017	658	0	200	68375	-37171
4018	658	0	200	68375	-37171
4019	658	0	200	68375	-37301
4020	658	0	200	68375	-37301
4021	659	0	200	68375	-37301
4022	656	0	200	68375	-37446
4023	658	0	200	68375	-37446
4024	658	0	200	68375	-37446
4025	658	0	200	68375	-37599
4026	657	0	200	68375	-37599
4027	658	0	200	68375	-37599
4028	658	0	200	68375	-37764
4029	656	0	200	68375	-37764
4030	657	0	200	68375	-37764
4031	658	0	200	68375	-37934
4032	658	0	200	68375	-37934
4033	658	0	200	68375	-37934
4034	658	0	200	68375	-38110
4035	658	0	200	68375	-38110
4036	657	0	200	68375	-38110
4037	657	0	200	68375	-38294
4038	658	0	200	68375	-38294
4039	658	0	200	68375	-38294
4040	658	0	200	68375	-38481
4041	657	0	200	68375	-38481
