0	0	0	0	0	0
1	0	0	0	0	0
2	0	0	0	0	0
3	32	0	0	0	0
4	37	0	0	0	0
5	37	0	0	-20594	0
6	35	0	0	-20594	0
7	42	0	0	-20594	-161474
8	35	0	0	-20594	-161474
9	39	0	0	-20594	-161474
10	42	500	500	-20594	-161474
11	35	500	500	-20594	-161474
12	41	500	500	-20594	-161474
13	32	500	500	-20594	-161474
14	39	500	500	-20520	-161474
15	38	500	500	-20520	-161474
16	40	500	500	-20520	-161398
17	35	500	500	-20351	-161398
18	39	500	500	-20351	-161398
19	35	500	500	-20351	-161232
20	38	500	500	-20152	-161232
21	38	500	500	-20152	-161232
22	40	500	500	-20152	-161036
23	35	500	500	-19931	-161036
24	38	500	500	-19931	-161036
25	35	500	500	-19931	-160818
26	35	500	500	-19710	-160818
27	39	500	500	-19710	-160818
28	33	500	500	-19710	-160594
29	38	500	500	-19479	-160594
30	35	500	500	-19479	-160594
31	39	500	500	-19479	-160367
32	35	500	500	-19252	-160367
33	39	500	500	-19252	-160367
34	35	500	500	-19252	-160137
35	40	500	500	-19026	-160137
36	32	500	500	-19026	-160137
37	37	500	500	-19026	-159906
38	31	500	500	-18796	-159906
39	36	500	500	-18796	-159906
40	31	500	500	-18796	-159677
41	33	500	500	-18569	-159677
42	36	500	500	-18569	-159677
43	35	500	500	-18569	-159448
44	36	500	500	-18341	-159448
45	32	500	500	-18341	-159448
46	39	500	500	-18341	-159220
47	34	500	500	-18113	-159220
48	39	500	500	-18113	-159220
49	36	500	500	-18113	-158991
50	40	500	500	-17883	-158991
51	36	500	500	-17883	-158991
52	41	500	500	-17883	-158763
53	39	500	500	-17658	-158763
54	40	500	500	-17658	-158763
55	32	500	500	-17658	-158533
56	39	500	500	-17427	-158533
57	34	500	500	-17427	-158533
58	40	500	500	-17427	-158305
59	32	500	500	-17199	-158305
60	39	500	500	-17199	-158305
61	36	500	500	-17199	-158073
62	38	500	500	-16973	-158073
63	32	500	500	-16973	-158073
64	37	500	500	-16973	-157842
65	32	500	500	-16742	-157842
66	36	500	500	-16742	-157842
67	33	500	500	-16742	-157613
68	38	500	500	-16516	-157613
69	31	500	500	-16516	-157613
70	38	500	500	-16516	-157385
71	35	500	500	-16287	-157385
72	34	500	500	-16287	-157385
73	34	500	500	-16287	-157155
74	36	500	500	-16287	-157155
75	36	500	500	-16060	-157155
76	36	500	500	-16060	-157155
77	40	500	500	-16060	-156928
78	35	500	500	-15828	-156928
79	40	500	500	-15828	-156928
80	36	500	500	-15828	-156699
81	40	500	500	-15602	-156699
82	35	500	500	-15602	-156699
83	38	500	500	-15602	-156469
84	36	500	500	-15371	-156469
85	40	500	500	-15371	-156469
86	34	500	500	-15371	-156242
87	39	500	500	-15141	-156242
88	35	500	500	-15141	-156242
89	40	500	500	-15141	-156011
90	36	500	500	-14915	-156011
91	39	500	500	-14915	-156011
92	36	500	500	-14915	-155779
93	41	500	500	-14683	-155779
94	32	500	500	-14683	-155779
95	40	500	500	-14683	-155549
96	36	500	500	-14455	-155549
97	38	500	500	-14455	-155549
98	30	500	500	-14455	-155320
99	41	500	500	-14226	-155320
100	35	500	500	-14226	-155320
101	38	500	500	-14226	-155090
102	31	500	500	-14000	-155090
103	36	500	500	-14000	-155090
104	30	500	500	-14000	-154862
105	36	500	500	-13768	-154862
106	31	500	500	-13768	-154862
107	33	500	500	-13768	-154636
108	32	500	500	-13541	-154636
109	38	500	500	-13541	-154636
110	36	500	500	-13541	-154403
111	36	500	500	-13313	-154403
112	34	500	500	-13313	-154403
113	35	500	500	-13313	-154175
114	38	500	500	-13083	-154175
115	34	500	500	-13083	-154175
116	36	500	500	-13083	-153944
117	35	500	500	-12858	-153944
118	37	500	500	-12858	-153944
119	36	500	500	-12858	-153713
120	39	500	500	-12627	-153713
121	38	500	500	-12627	-153713
122	40	500	500	-12627	-153485
123	34	500	500	-12399	-153485
124	39	500	500	-12399	-153485
125	32	500	500	-12399	-153254
126	39	500	500	-12172	-153254
127	36	500	500	-12172	-153254
128	40	500	500	-12172	-153024
129	36	500	500	-11944	-153024
130	40	500	500	-11944	-153024
131	40	500	500	-11944	-152796
132	34	500	500	-11714	-152796
133	40	500	500	-11714	-152796
134	37	500	500	-11714	-152570
135	39	500	500	-11487	-152570
136	37	500	500	-11487	-152570
137	38	500	500	-11487	-152338
138	37	500	500	-11258	-152338
139	40	500	500	-11258	-152338
140	32	500	500	-11258	-152108
141	39	500	500	-11029	-152108
142	32	500	500	-11029	-152108
143	38	500	500	-11029	-151879
144	37	500	500	-10804	-151879
145	40	500	500	-10804	-151879
146	34	500	500	-10804	-151648
147	41	500	500	-10574	-151648
148	34	500	500	-10574	-151648
149	39	500	500	-10574	-151420
150	34	500	500	-10346	-151420
151	41	500	500	-10346	-151420
152	36	500	500	-10346	-151189
153	41	500	500	-10120	-151189
154	34	500	500	-10120	-151189
155	33	500	500	-10120	-150959
156	29	500	500	-9894	-150959
157	37	500	500	-9894	-150959
158	36	500	500	-9894	-150730
159	34	500	500	-9664	-150730
160	33	500	500	-9664	-150730
161	38	500	500	-9664	-150504
162	36	500	500	-9438	-150504
163	33	500	500	-9438	-150504
164	36	500	500	-9438	-150273
165	33	500	500	-9211	-150273
166	39	500	500	-9211	-150273
167	37	500	500	-9211	-150043
168	40	500	500	-8982	-150043
169	33	500	500	-8982	-150043
170	40	500	500	-8982	-149813
171	37	500	500	-8759	-149813
172	40	500	500	-8759	-149813
173	36	500	500	-8759	-149583
174	40	500	500	-8529	-149583
175	39	500	500	-8529	-149583
176	38	500	500	-8529	-149354
177	36	500	500	-8302	-149354
178	41	500	500	-8302	-149354
179	36	500	500	-8302	-149123
180	40	500	500	-8076	-149123
181	36	500	500	-8076	-149123
182	38	500	500	-8076	-148895
183	37	500	500	-7851	-148895
184	41	500	500	-7851	-148895
185	34	500	500	-7851	-148666
186	40	500	500	-7622	-148666
187	33	500	500	-7622	-148666
188	39	500	500	-7622	-148439
189	33	500	500	-7397	-148439
190	41	500	500	-7397	-148439
191	34	500	500	-7397	-148208
192	39	500	500	-7397	-148208
193	31	500	500	-7170	-148208
194	39	500	500	-7170	-148208
195	34	500	500	-7170	-147979
196	38	500	500	-6943	-147979
197	32	500	500	-6943	-147979
198	37	500	500	-6943	-147747
199	35	500	500	-6721	-147747
200	35	500	500	-6721	-147747
201	32	500	500	-6721	-147518
202	36	500	500	-6493	-147518
203	35	500	500	-6493	-147518
204	35	500	500	-6493	-147290
205	35	500	500	-6271	-147290
206	36	500	500	-6271	-147290
207	40	500	500	-6271	-147057
208	35	500	500	-6046	-147057
209	39	500	500	-6046	-147057
210	36	500	500	-6046	-146831
211	40	500	500	-5823	-146831
212	37	500	500	-5823	-146831
213	40	500	500	-5823	-146600
214	35	500	500	-5599	-146600
215	40	500	500	-5599	-146600
216	36	500	500	-5599	-146371
217	41	500	500	-5379	-146371
218	37	500	500	-5379	-146371
219	41	500	500	-5379	-146143
220	34	500	500	-5153	-146143
221	40	500	500	-5153	-146143
222	33	500	500	-5153	-145914
223	39	500	500	-4934	-145914
224	33	500	500	-4934	-145914
225	41	500	500	-4934	-145681
226	32	500	500	-4714	-145681
227	36	500	500	-4714	-145681
228	32	500	500	-4714	-145453
229	38	500	500	-4491	-145453
230	31	500	500	-4491	-145453
231	37	500	500	-4491	-145225
232	34	500	500	-4276	-145225
233	37	500	500	-4276	-145225
234	38	500	500	-4276	-144992
235	39	500	500	-4055	-144992
236	39	500	500	-4055	-144992
237	41	500	500	-4055	-144767
238	40	500	500	-3843	-144767
239	43	500	500	-3843	-144767
240	38	500	500	-3843	-144536
241	44	500	500	-3623	-144536
242	40	500	500	-3623	-144536
243	43	500	500	-3623	-144306
244	39	500	500	-3405	-144306
245	42	500	500	-3405	-144306
246	42	500	500	-3405	-144077
247	43	500	500	-3190	-144077
248	41	500	500	-3190	-144077
249	44	500	500	-3190	-143850
250	42	500	500	-2974	-143850
251	43	500	500	-2974	-143850
252	38	500	500	-2974	-143617
253	42	500	500	-2760	-143617
254	42	500	500	-2760	-143617
255	46	500	500	-2760	-143389
256	46	500	500	-2546	-143389
257	46	500	500	-2546	-143389
258	43	500	500	-2546	-143162
259	46	500	500	-2332	-143162
260	45	500	500	-2332	-143162
261	45	500	500	-2332	-142930
262	46	500	500	-2121	-142930
263	45	500	500	-2121	-142930
264	42	500	500	-2121	-142704
265	49	500	500	-1910	-142704
266	42	500	500	-1910	-142704
267	47	500	500	-1910	-142475
268	40	500	500	-1700	-142475
269	47	500	500	-1700	-142475
270	44	500	500	-1700	-142244
271	53	500	500	-1488	-142244
272	46	500	500	-1488	-142244
273	51	500	500	-1488	-142016
274	48	500	500	-1282	-142016
275	51	500	500	-1282	-142016
276	42	500	500	-1282	-141788
277	53	500	500	-1071	-141788
278	47	500	500	-1071	-141788
279	51	500	500	-1071	-141556
280	45	500	500	-863	-141556
281	52	500	500	-863	-141556
282	45	500	500	-863	-141326
283	52	500	500	-656	-141326
284	52	500	500	-656	-141326
285	54	500	500	-656	-141100
286	49	500	500	-447	-141100
287	57	500	500	-447	-141100
288	50	500	500	-447	-140868
289	57	500	500	-238	-140868
290	50	500	500	-238	-140868
291	55	500	500	-238	-140640
292	53	500	500	-32	-140640
293	57	500	500	-32	-140640
294	48	500	500	-32	-140413
295	56	500	500	174	-140413
296	52	500	500	174	-140413
297	56	500	500	174	-140181
298	54	500	500	381	-140181
299	60	500	500	381	-140181
300	51	500	500	381	-139952
301	59	500	500	589	-139952
302	51	500	500	589	-139952
303	57	500	500	589	-139725
304	56	500	500	794	-139725
305	60	500	500	794	-139725
306	57	500	500	794	-139493
307	65	500	500	1000	-139493
308	58	500	500	1000	-139493
309	64	500	500	1000	-139262
310	57	500	500	1000	-139262
311	63	500	500	1203	-139262
312	55	500	500	1203	-139262
313	64	500	500	1203	-139035
314	58	500	500	1405	-139035
315	66	500	500	1405	-139035
316	63	500	500	1405	-138804
317	71	500	500	1610	-138804
318	62	500	500	1610	-138804
319	70	500	500	1610	-138574
320	64	500	500	1815	-138574
321	69	500	500	1815	-138574
322	61	500	500	1815	-138346
323	70	500	500	2016	-138346
324	65	500	500	2016	-138346
325	73	500	500	2016	-138117
326	67	500	500	2220	-138117
327	73	500	500	2220	-138117
328	67	500	500	2220	-137885
329	73	500	500	2423	-137885
330	68	500	500	2423	-137885
331	74	500	500	2423	-137658
332	71	500	500	2629	-137658
333	75	500	500	2629	-137658
334	70	500	500	2629	-137427
335	77	500	500	2833	-137427
336	74	500	500	2833	-137427
337	76	500	500	2833	-137196
338	74	500	500	3038	-137196
339	80	500	500	3038	-137196
340	77	500	500	3038	-136969
341	77	500	500	3241	-136969
342	80	500	500	3241	-136969
343	77	500	500	3241	-136739
344	80	500	500	3444	-136739
345	77	500	500	3444	-136739
346	83	500	500	3444	-136508
347	77	500	500	3648	-136508
348	85	500	500	3648	-136508
349	80	500	500	3648	-136280
350	81	500	500	3852	-136280
351	79	500	500	3852	-136280
352	86	500	500	3852	-136051
353	80	500	500	4052	-136051
354	88	500	500	4052	-136051
355	84	500	500	4052	-135821
356	85	500	500	4255	-135821
357	78	500	500	4255	-135821
358	87	500	500	4255	-135591
359	87	500	500	4456	-135591
360	89	500	500	4456	-135591
361	85	500	500	4456	-135361
362	89	500	500	4660	-135361
363	86	500	500	4660	-135361
364	94	500	500	4660	-135130
365	90	500	500	4859	-135130
366	95	500	500	4859	-135130
367	88	500	500	4859	-134904
368	93	500	500	5064	-134904
369	91	500	500	5064	-134904
370	98	500	500	5064	-134674
371	90	500	500	5265	-134674
372	99	500	500	5265	-134674
373	95	500	500	5265	-134444
374	99	500	500	5467	-134444
375	97	500	500	5467	-134444
376	101	500	500	5467	-134216
377	100	500	500	5671	-134216
378	102	500	500	5671	-134216
379	102	500	500	5671	-133986
380	105	500	500	5874	-133986
381	103	500	500	5874	-133986
382	104	500	500	5874	-133757
383	103	500	500	6073	-133757
384	108	500	500	6073	-133757
385	104	500	500	6073	-133526
386	108	500	500	6275	-133526
387	105	500	500	6275	-133526
388	108	500	500	6275	-133295
389	105	500	500	6477	-133295
390	113	500	500	6477	-133295
391	111	500	500	6477	-133065
392	109	500	500	6681	-133065
393	111	500	500	6681	-133065
394	111	500	500	6681	-132836
395	110	500	500	6883	-132836
396	107	500	500	6883	-132836
397	110	500	500	6883	-132608
398	116	500	500	7086	-132608
399	114	500	500	7086	-132608
400	112	500	500	7086	-132377
401	121	500	500	7288	-132377
402	123	500	500	7288	-132377
403	121	500	500	7288	-132149
404	127	500	500	7491	-132149
405	121	500	500	7491	-132149
406	131	500	500	7491	-131920
407	129	500	500	7696	-131920
408	128	500	500	7696	-131920
409	125	500	500	7696	-131692
410	134	500	500	7898	-131692
411	134	500	500	7898	-131692
412	134	500	500	7898	-131461
413	132	500	500	8103	-131461
414	134	500	500	8103	-131461
415	130	500	500	8103	-131229
416	135	500	500	8306	-131229
417	135	500	500	8306	-131229
418	137	500	500	8306	-130999
419	136	500	500	8508	-130999
420	133	500	500	8508	-130999
421	136	500	500	8508	-130771
422	139	500	500	8712	-130771
423	138	500	500	8712	-130771
424	140	500	500	8712	-130541
425	143	500	500	8916	-130541
426	148	500	500	8916	-130541
427	149	500	500	8916	-130314
428	153	500	500	8916	-130314
429	153	500	500	9119	-130314
430	157	500	500	9119	-130314
431	159	500	500	9119	-130085
432	157	500	500	9323	-130085
433	158	500	500	9323	-130085
434	161	500	500	9323	-129856
435	161	500	500	9527	-129856
436	160	500	500	9527	-129856
437	163	500	500	9527	-129628
438	165	500	500	9730	-129628
439	164	500	500	9730	-129628
440	164	500	500	9730	-129397
441	167	500	500	9935	-129397
442	167	500	500	9935	-129397
443	167	500	500	9935	-129165
444	167	500	500	10141	-129165
445	170	500	500	10141	-129165
446	170	500	500	10141	-128936
447	170	500	500	10346	-128936
448	168	500	500	10346	-128936
449	168	500	500	10346	-128708
450	171	500	500	10550	-128708
451	170	500	500	10550	-128708
452	166	500	500	10550	-128478
453	168	500	500	10754	-128478
454	170	500	500	10754	-128478
455	169	500	500	10754	-128251
456	170	500	500	10961	-128251
457	176	500	500	10961	-128251
458	177	500	500	10961	-128023
459	178	500	500	11166	-128023
460	182	500	500	11166	-128023
461	186	500	500	11166	-127793
462	186	500	500	11372	-127793
463	186	500	500	11372	-127793
464	186	500	500	11372	-127567
465	183	500	500	11577	-127567
466	184	500	500	11577	-127567
467	182	500	500	11577	-127336
468	185	500	500	11783	-127336
469	190	500	500	11783	-127336
470	196	500	500	11783	-127104
471	201	500	500	11989	-127104
472	201	500	500	11989	-127104
473	201	500	500	11989	-126875
474	204	500	500	12196	-126875
475	206	500	500	12196	-126875
476	205	500	500	12196	-126645
477	205	500	500	12401	-126645
478	208	500	500	12401	-126645
479	207	500	500	12401	-126415
480	207	500	500	12607	-126415
481	210	500	500	12607	-126415
482	212	500	500	12607	-126187
483	212	500	500	12815	-126187
484	211	500	500	12815	-126187
485	214	500	500	12815	-125961
486	212	500	500	13022	-125961
487	211	500	500	13022	-125961
488	211	500	500	13022	-125728
489	208	500	500	13232	-125728
490	211	500	500	13232	-125728
491	211	500	500	13232	-125500
492	213	500	500	13438	-125500
493	214	500	500	13438	-125500
494	217	500	500	13438	-125269
495	226	500	500	13646	-125269
496	226	500	500	13646	-125269
497	223	500	500	13646	-125037
498	219	500	500	13857	-125037
499	219	500	500	13857	-125037
500	222	500	500	13857	-124809
501	224	500	500	14066	-124809
502	228	500	500	14066	-124809
503	232	500	500	14066	-124579
504	234	500	500	14274	-124579
505	237	500	500	14274	-124579
506	242	500	500	14274	-124349
507	240	500	500	14486	-124349
508	240	500	500	14486	-124349
509	243	500	500	14486	-124121
510	246	500	500	14696	-124121
511	246	500	500	14696	-124121
512	244	500	500	14696	-123895
513	246	500	500	14910	-123895
514	247	500	500	14910	-123895
515	244	500	500	14910	-123663
516	242	500	500	15121	-123663
517	768	500	500	15121	-123663
518	259	500	500	15121	-123432
519	259	500	500	15336	-123432
520	259	500	500	15336	-123432
521	262	500	500	15336	-123203
522	262	500	500	15549	-123203
523	262	500	500	15549	-123203
524	265	500	500	15549	-122972
525	267	500	500	15763	-122972
526	267	500	500	15763	-122972
527	267	500	500	15763	-122744
528	268	500	500	15981	-122744
529	270	500	500	15981	-122744
530	270	500	500	15981	-122513
531	270	500	500	16193	-122513
532	272	500	500	16193	-122513
533	274	500	500	16193	-122284
534	274	500	500	16409	-122284
535	274	500	500	16409	-122284
536	275	500	500	16409	-122054
537	277	500	500	16620	-122054
538	278	500	500	16620	-122054
539	277	500	500	16620	-121828
540	278	500	500	16620	-121828
541	282	500	500	16837	-121828
542	282	500	500	16837	-121597
543	283	500	500	16837	-121597
544	283	500	500	17053	-121597
545	283	500	500	17053	-121366
546	285	500	500	17053	-121366
547	286	500	500	17269	-121366
548	286	500	500	17269	-121136
549	287	500	500	17269	-121136
550	290	500	500	17486	-121136
551	290	500	500	17486	-121136
552	290	500	500	17486	-120906
553	291	500	500	17703	-120906
554	290	500	500	17703	-120906
555	291	500	500	17703	-120678
556	294	500	500	17917	-120678
557	293	500	500	17917	-120678
558	294	500	500	17917	-120446
559	294	500	500	18132	-120446
560	294	500	500	18132	-120446
561	297	500	500	18132	-120218
562	297	500	500	18348	-120218
563	297	500	500	18348	-120218
564	297	500	500	18348	-119988
565	299	500	500	18561	-119988
566	302	500	500	18561	-119988
567	301	500	500	18561	-119761
568	302	500	500	18775	-119761
569	302	500	500	18775	-119761
570	302	500	500	18775	-119531
571	305	500	500	18991	-119531
572	305	500	500	18991	-119531
573	306	500	500	18991	-119302
574	305	500	500	19201	-119302
575	306	500	500	19201	-119302
576	309	500	500	19201	-119069
577	309	500	500	19418	-119069
578	309	500	500	19418	-119069
579	310	500	500	19418	-118841
580	310	500	500	19630	-118841
581	313	500	500	19630	-118841
582	313	500	500	19630	-118612
583	313	500	500	19841	-118612
584	314	500	500	19841	-118612
585	314	500	500	19841	-118379
586	314	500	500	20056	-118379
587	317	500	500	20056	-118379
588	317	500	500	20056	-118154
589	318	500	500	20267	-118154
590	317	500	500	20267	-118154
591	317	500	500	20267	-117922
592	322	500	500	20476	-117922
593	322	500	500	20476	-117922
594	321	500	500	20476	-117693
595	322	500	500	20683	-117693
596	322	500	500	20683	-117693
597	324	500	500	20683	-117464
598	326	500	500	20897	-117464
599	326	500	500	20897	-117464
600	326	500	500	20897	-117234
601	326	500	500	21106	-117234
602	327	500	500	21106	-117234
603	330	500	500	21106	-117001
604	329	500	500	21318	-117001
605	330	500	500	21318	-117001
606	329	500	500	21318	-116771
607	330	500	500	21529	-116771
608	332	500	500	21529	-116771
609	334	500	500	21529	-116544
610	334	500	500	21741	-116544
611	334	500	500	21741	-116544
612	333	500	500	21741	-116311
613	336	500	500	21950	-116311
614	338	500	500	21950	-116311
615	337	500	500	21950	-116085
616	338	500	500	22166	-116085
617	338	500	500	22166	-116085
618	340	500	500	22166	-115855
619	342	500	500	22378	-115855
620	342	500	500	22378	-115855
621	342	500	500	22378	-115623
622	342	500	500	22590	-115623
623	342	500	500	22590	-115623
624	345	500	500	22590	-115395
625	346	500	500	22802	-115395
626	346	500	500	22802	-115395
627	346	500	500	22802	-115168
628	346	500	500	23014	-115168
629	348	500	500	23014	-115168
630	349	500	500	23014	-114934
631	349	500	500	23226	-114934
632	349	500	500	23226	-114934
633	350	500	500	23226	-114705
634	351	500	500	23436	-114705
635	352	500	500	23436	-114705
636	354	500	500	23436	-114478
637	354	500	500	23648	-114478
638	353	500	500	23648	-114478
639	356	500	500	23648	-114246
640	358	500	500	23858	-114246
641	357	500	500	23858	-114246
642	356	500	500	23858	-114018
643	357	500	500	24068	-114018
644	360	500	500	24068	-114018
645	360	500	500	24068	-113790
646	361	500	500	24278	-113790
647	360	500	500	24278	-113790
648	360	500	500	24278	-113559
649	364	500	500	24488	-113559
650	365	500	500	24488	-113559
651	365	500	500	24488	-113329
652	364	500	500	24698	-113329
653	366	500	500	24698	-113329
654	366	500	500	24698	-113103
655	369	500	500	24906	-113103
656	369	500	500	24906	-113103
657	369	500	500	24906	-112870
658	369	500	500	25118	-112870
659	372	500	500	25118	-112870
660	373	500	500	25118	-112640
661	373	500	500	25326	-112640
662	373	500	500	25326	-112640
663	374	500	500	25326	-112413
664	378	500	500	25326	-112413
665	377	500	500	25538	-112413
666	377	500	500	25538	-112413
667	376	500	500	25538	-112181
668	381	500	500	25747	-112181
669	380	500	500	25747	-112181
670	382	500	500	25747	-111952
671	381	500	500	25957	-111952
672	382	500	500	25957	-111952
673	385	500	500	25957	-111724
674	385	500	500	26169	-111724
675	386	500	500	26169	-111724
676	385	500	500	26169	-111495
677	388	500	500	26380	-111495
678	389	500	500	26380	-111495
679	389	500	500	26380	-111263
680	389	500	500	26588	-111263
681	391	500	500	26588	-111263
682	393	500	500	26588	-111037
683	392	500	500	26798	-111037
684	393	500	500	26798	-111037
685	393	500	500	26798	-110805
686	397	500	500	27009	-110805
687	396	500	500	27009	-110805
688	397	500	500	27009	-110574
689	397	500	500	27222	-110574
690	400	500	500	27222	-110574
691	401	500	500	27222	-110347
692	401	500	500	27434	-110347
693	401	500	500	27434	-110347
694	405	500	500	27434	-110117
695	405	500	500	27646	-110117
696	405	500	500	27646	-110117
697	405	500	500	27646	-109887
698	407	500	500	27859	-109887
699	408	500	500	27859	-109887
700	408	500	500	27859	-109659
701	409	500	500	28070	-109659
702	411	500	500	28070	-109659
703	414	500	500	28070	-109430
704	413	500	500	28285	-109430
705	413	500	500	28285	-109430
706	416	500	500	28285	-109199
707	417	500	500	28496	-109199
708	416	500	500	28496	-109199
709	417	500	500	28496	-108970
710	420	500	500	28711	-108970
711	421	500	500	28711	-108970
712	421	500	500	28711	-108740
713	420	500	500	28920	-108740
714	423	500	500	28920	-108740
715	425	500	500	28920	-108509
716	426	500	500	29137	-108509
717	426	500	500	29137	-108509
718	427	500	500	29137	-108282
719	428	500	500	29354	-108282
720	429	500	500	29354	-108282
721	430	500	500	29354	-108052
722	430	500	500	29567	-108052
723	433	500	500	29567	-108052
724	433	500	500	29567	-107822
725	433	500	500	29786	-107822
726	434	500	500	29786	-107822
727	437	500	500	29786	-107594
728	437	500	500	30001	-107594
729	437	500	500	30001	-107594
730	439	500	500	30001	-107365
731	441	500	500	30217	-107365
732	441	500	500	30217	-107365
733	441	500	500	30217	-107135
734	441	500	500	30433	-107135
735	445	500	500	30433	-107135
736	445	500	500	30433	-106905
737	445	500	500	30648	-106905
738	444	500	500	30648	-106905
739	448	500	500	30648	-106674
740	449	500	500	30863	-106674
741	449	500	500	30863	-106674
742	449	500	500	30863	-106444
743	451	500	500	31079	-106444
744	453	500	500	31079	-106444
745	453	500	500	31079	-106215
746	453	500	500	31296	-106215
747	455	500	500	31296	-106215
748	456	500	500	31296	-105987
749	457	500	500	31511	-105987
750	456	500	500	31511	-105987
751	456	500	500	31511	-105757
752	460	500	500	31729	-105757
753	461	500	500	31729	-105757
754	461	500	500	31729	-105529
755	461	500	500	31946	-105529
756	463	500	500	31946	-105529
757	465	500	500	31946	-105300
758	465	500	500	32161	-105300
759	465	500	500	32161	-105300
760	465	500	500	32161	-105071
761	466	500	500	32380	-105071
762	469	500	500	32380	-105071
763	469	500	500	32380	-104840
764	469	500	500	32594	-104840
765	470	500	500	32594	-104840
766	474	500	500	32594	-104608
767	473	500	500	32813	-104608
768	473	500	500	32813	-104608
769	473	500	500	32813	-104379
770	476	500	500	33024	-104379
771	477	500	500	33024	-104379
772	476	500	500	33024	-104150
773	477	500	500	33243	-104150
774	479	500	500	33243	-104150
775	481	500	500	33243	-103920
776	481	500	500	33460	-103920
777	481	500	500	33460	-103920
778	482	500	500	33460	-103692
779	484	500	500	33675	-103692
780	485	500	500	33675	-103692
781	486	500	500	33675	-103463
782	485	500	500	33675	-103463
783	487	500	500	33893	-103463
784	489	500	500	33893	-103233
785	489	500	500	33893	-103233
786	490	500	500	34108	-103233
787	491	500	500	34108	-103233
788	493	500	500	34108	-103005
789	493	500	500	34324	-103005
790	493	500	500	34324	-103005
791	494	500	500	34324	-102774
792	497	500	500	34541	-102774
793	497	500	500	34541	-102774
794	497	500	500	34541	-102542
795	497	500	500	34755	-102542
796	499	500	500	34755	-102542
797	501	500	500	34755	-102312
798	501	500	500	34971	-102312
799	501	500	500	34971	-102312
800	502	500	500	34971	-102083
801	505	500	500	35185	-102083
802	505	500	500	35185	-102083
803	505	500	500	35185	-101853
804	505	500	500	35401	-101853
805	507	500	500	35401	-101853
806	509	500	500	35401	-101625
807	509	500	500	35617	-101625
808	508	500	500	35617	-101625
809	509	500	500	35617	-101397
810	513	500	500	35833	-101397
811	513	500	500	35833	-101397
812	513	500	500	35833	-101166
813	513	500	500	36049	-101166
814	515	500	500	36049	-101166
815	516	500	500	36049	-100938
816	517	500	500	36263	-100938
817	517	500	500	36263	-100938
818	518	500	500	36263	-100707
819	521	500	500	36480	-100707
820	521	500	500	36480	-100707
821	520	500	500	36480	-100474
822	522	500	500	36692	-100474
823	524	500	500	36692	-100474
824	525	500	500	36692	-100245
825	524	500	500	36909	-100245
826	525	500	500	36909	-100245
827	528	500	500	36909	-100015
828	528	500	500	37119	-100015
829	529	500	500	37119	-100015
830	528	500	500	37119	-99785
831	532	500	500	37336	-99785
832	532	500	500	37336	-99785
833	533	500	500	37336	-99557
834	533	500	500	37553	-99557
835	534	500	500	37553	-99557
836	537	500	500	37553	-99331
837	537	500	500	37766	-99331
838	537	500	500	37766	-99331
839	538	500	500	37766	-99098
840	541	500	500	37983	-99098
841	540	500	500	37983	-99098
842	541	500	500	37983	-98869
843	542	500	500	38197	-98869
844	545	500	500	38197	-98869
845	544	500	500	38197	-98639
846	544	500	500	38412	-98639
847	545	500	500	38412	-98639
848	548	500	500	38412	-98407
849	549	500	500	38627	-98407
850	548	500	500	38627	-98407
851	550	500	500	38627	-98179
852	552	500	500	38842	-98179
853	552	500	500	38842	-98179
854	552	500	500	38842	-97948
855	553	500	500	39057	-97948
856	556	500	500	39057	-97948
857	557	500	500	39057	-97718
858	557	500	500	39272	-97718
859	558	500	500	39272	-97718
860	560	500	500	39272	-97490
861	561	500	500	39490	-97490
862	560	500	500	39490	-97490
863	562	500	500	39490	-97264
864	562	500	500	39706	-97264
865	564	500	500	39706	-97264
866	564	500	500	39706	-97032
867	565	500	500	39923	-97032
868	566	500	500	39923	-97032
869	569	500	500	39923	-96802
870	569	500	500	40140	-96802
871	569	500	500	40140	-96802
872	568	500	500	40140	-96573
873	572	500	500	40355	-96573
874	573	500	500	40355	-96573
875	573	500	500	40355	-96342
876	575	500	500	40574	-96342
877	577	500	500	40574	-96342
878	577	500	500	40574	-96115
879	577	500	500	40788	-96115
880	580	500	500	40788	-96115
881	582	500	500	40788	-95884
882	581	500	500	41006	-95884
883	580	500	500	41006	-95884
884	584	500	500	41006	-95656
885	586	500	500	41006	-95656
886	586	500	500	41220	-95656
887	585	500	500	41220	-95426
888	587	500	500	41220	-95426
889	588	500	500	41439	-95426
890	590	500	500	41439	-95426
891	589	500	500	41439	-95200
892	593	500	500	41657	-95200
893	593	500	500	41657	-95200
894	593	500	500	41657	-94969
895	594	500	500	41875	-94969
896	597	500	500	41875	-94969
897	597	500	500	41875	-94739
898	597	500	500	42094	-94739
899	599	500	500	42094	-94739
900	602	500	500	42094	-94508
901	601	500	500	42311	-94508
902	601	500	500	42311	-94508
903	603	500	500	42311	-94279
904	604	500	500	42531	-94279
905	605	500	500	42531	-94279
906	605	500	500	42531	-94050
907	608	500	500	42749	-94050
908	609	500	500	42749	-94050
909	609	500	500	42749	-93818
910	609	500	500	42966	-93818
911	613	500	500	42966	-93818
912	613	500	500	42966	-93590
913	613	500	500	43183	-93590
914	614	500	500	43183	-93590
915	617	500	500	43183	-93360
916	616	500	500	43401	-93360
917	617	500	500	43401	-93360
918	618	500	500	43401	-93132
919	621	500	500	43620	-93132
920	621	500	500	43620	-93132
921	620	500	500	43620	-92903
922	624	500	500	43841	-92903
923	625	500	500	43841	-92903
924	624	500	500	43841	-92673
925	625	500	500	44061	-92673
926	629	500	500	44061	-92673
927	628	500	500	44061	-92441
928	629	500	500	44280	-92441
929	629	500	500	44280	-92441
930	633	500	500	44280	-92212
931	634	500	500	44498	-92212
932	632	500	500	44498	-92212
933	635	500	500	44498	-91984
934	637	500	500	44718	-91984
935	635	500	500	44718	-91984
936	638	500	500	44718	-91751
937	640	500	500	44938	-91751
938	640	500	500	44938	-91751
939	640	500	500	44938	-91526
940	641	500	500	45157	-91526
941	645	500	500	45157	-91526
942	646	500	500	45157	-91295
943	645	500	500	45375	-91295
944	645	500	500	45375	-91295
945	649	500	500	45375	-91066
946	649	500	500	45596	-91066
947	648	500	500	45596	-91066
948	651	500	500	45596	-90837
949	653	500	500	45813	-90837
950	653	500	500	45813	-90837
951	654	500	500	45813	-90608
952	654	500	500	46036	-90608
953	658	500	500	46036	-90608
954	658	500	500	46036	-90375
955	658	500	500	46256	-90375
956	659	500	500	46256	-90375
957	661	500	500	46256	-90146
958	662	500	500	46474	-90146
959	662	500	500	46474	-90146
960	665	500	500	46474	-89919
961	666	500	500	46698	-89919
962	666	500	500	46698	-89919
963	666	500	500	46698	-89686
964	669	500	500	46915	-89686
965	669	500	500	46915	-89686
966	669	500	500	46915	-89460
967	670	500	500	47137	-89460
968	674	500	500	47137	-89460
969	674	500	500	47137	-89230
970	674	500	500	47353	-89230
971	674	500	500	47353	-89230
972	676	500	500	47353	-88999
973	678	500	500	47576	-88999
974	678	500	500	47576	-88999
975	678	500	500	47576	-88771
976	682	500	500	47798	-88771
977	680	500	500	47798	-88771
978	681	500	500	47798	-88544
979	681	500	500	48018	-88544
980	685	500	500	48018	-88544
981	686	500	500	48018	-88310
982	685	500	500	48239	-88310
983	688	500	500	48239	-88310
984	690	500	500	48239	-88081
985	690	500	500	48459	-88081
986	690	500	500	48459	-88081
987	692	500	500	48459	-87854
988	693	500	500	48682	-87854
989	692	500	500	48682	-87854
990	693	500	500	48682	-87623
991	696	500	500	48903	-87623
992	698	500	500	48903	-87623
993	698	500	500	48903	-87394
994	698	500	500	49122	-87394
995	703	500	500	49122	-87394
996	702	500	500	49122	-87166
997	702	500	500	49341	-87166
998	704	500	500	49341	-87166
999	706	500	500	49341	-86935
1000	706	500	500	49564	-86935
1001	705	500	500	49564	-86935
1002	709	500	500	49564	-86705
1003	710	500	500	49564	-86705
1004	710	500	500	49783	-86705
1005	709	500	500	49783	-86479
1006	713	500	500	49783	-86479
1007	715	500	500	50007	-86479
1008	714	500	500	50007	-86479
1009	716	500	500	50007	-86246
1010	718	500	500	50230	-86246
1011	718	500	500	50230	-86246
1012	718	500	500	50230	-86015
1013	719	500	500	50451	-86015
1014	721	500	500	50451	-86015
1015	722	500	500	50451	-85788
1016	722	500	500	50671	-85788
1017	726	500	500	50671	-85788
1018	727	500	500	50671	-85557
1019	727	500	500	50892	-85557
1020	728	500	500	50892	-85557
1021	730	500	500	50892	-85328
1022	730	500	500	51115	-85328
1023	731	500	500	51115	-85328
1024	733	500	500	51115	-85100
1025	734	500	500	51335	-85100
1026	735	500	500	51335	-85100
1027	735	500	500	51335	-84871
1028	738	500	500	51557	-84871
1029	739	500	500	51557	-84871
1030	737	500	500	51557	-84640
1031	738	500	500	51781	-84640
1032	743	500	500	51781	-84640
1033	742	500	500	51781	-84414
1034	742	500	500	52004	-84414
1035	745	500	500	52004	-84414
1036	745	500	500	52004	-84181
1037	747	500	500	52227	-84181
1038	747	500	500	52227	-84181
1039	749	500	500	52227	-83951
1040	751	500	500	52451	-83951
1041	749	500	500	52451	-83951
1042	752	500	500	52451	-83725
1043	754	500	500	52671	-83725
1044	753	500	500	52671	-83725
1045	753	500	500	52671	-83495
1046	757	500	500	52897	-83495
1047	757	500	500	52897	-83495
1048	757	500	500	52897	-83266
1049	759	500	500	53118	-83266
1050	762	500	500	53118	-83266
1051	762	500	500	53118	-83038
1052	761	500	500	53341	-83038
1053	763	500	500	53341	-83038
1054	766	500	500	53341	-82809
1055	765	500	500	53564	-82809
1056	766	500	500	53564	-82809
1057	770	500	500	53564	-82578
1058	770	500	500	53788	-82578
1059	771	500	500	53788	-82578
1060	772	500	500	53788	-82350
1061	773	500	500	54009	-82350
1062	774	500	500	54009	-82350
1063	773	500	500	54009	-82119
1064	776	500	500	54236	-82119
1065	778	500	500	54236	-82119
1066	776	500	500	54236	-81888
1067	779	500	500	54457	-81888
1068	782	500	500	54457	-81888
1069	781	500	500	54457	-81662
1070	781	500	500	54679	-81662
1071	784	500	500	54679	-81662
1072	785	500	500	54679	-81431
1073	786	500	500	54906	-81431
1074	786	500	500	54906	-81431
1075	789	500	500	54906	-81201
1076	789	500	500	55126	-81201
1077	790	500	500	55126	-81201
1078	790	500	500	55126	-80973
1079	793	500	500	55351	-80973
1080	793	500	500	55351	-80973
1081	794	500	500	55351	-80744
1082	796	500	500	55574	-80744
1083	797	500	500	55574	-80744
1084	796	500	500	55574	-80514
1085	798	500	500	55798	-80514
1086	801	500	500	55798	-80514
1087	801	500	500	55798	-80283
1088	803	500	500	56023	-80283
1089	804	500	500	56023	-80283
1090	806	500	500	56023	-80053
1091	806	500	500	56249	-80053
1092	804	500	500	56249	-80053
1093	808	500	500	56249	-79823
1094	809	500	500	56472	-79823
1095	808	500	500	56472	-79823
1096	810	500	500	56472	-79594
1097	813	500	500	56695	-79594
1098	814	500	500	56695	-79594
1099	815	500	500	56695	-79365
1100	819	500	500	56922	-79365
1101	818	500	500	56922	-79365
1102	818	500	500	56922	-79136
1103	820	500	500	57146	-79136
1104	821	500	500	57146	-79136
1105	821	500	500	57146	-78908
1106	822	500	500	57372	-78908
1107	825	500	500	57372	-78908
1108	824	500	500	57372	-78679
1109	825	500	500	57593	-78679
1110	829	500	500	57593	-78679
1111	831	500	500	57593	-78450
1112	831	500	500	57821	-78450
1113	831	500	500	57821	-78450
1114	833	500	500	57821	-78220
1115	834	500	500	58047	-78220
1116	834	500	500	58047	-78220
1117	837	500	500	58047	-77989
1118	838	500	500	58274	-77989
1119	838	500	500	58274	-77989
1120	839	500	500	58274	-77761
1121	842	500	500	58498	-77761
1122	842	500	500	58498	-77761
1123	842	500	500	58498	-77533
1124	845	500	500	58498	-77533
1125	845	500	500	58723	-77533
1126	844	500	500	58723	-77533
1127	845	500	500	58723	-77305
1128	849	500	500	58951	-77305
1129	849	500	500	58951	-77305
1130	849	500	500	58951	-77077
1131	854	500	500	59177	-77077
1132	854	500	500	59177	-77077
1133	854	500	500	59177	-76849
1134	856	500	500	59403	-76849
1135	857	500	500	59403	-76849
1136	856	500	500	59403	-76620
1137	858	500	500	59626	-76620
1138	861	500	500	59626	-76620
1139	862	500	500	59626	-76394
1140	863	500	500	59854	-76394
1141	865	500	500	59854	-76394
1142	866	500	500	59854	-76164
1143	866	500	500	60082	-76164
1144	865	500	500	60082	-76164
1145	870	500	500	60082	-75934
1146	868	500	500	60308	-75934
1147	868	500	500	60308	-75934
1148	870	500	500	60308	-75706
1149	874	500	500	60535	-75706
1150	874	500	500	60535	-75706
1151	872	500	500	60535	-75480
1152	877	500	500	60761	-75480
1153	878	500	500	60761	-75480
1154	878	500	500	60761	-75254
1155	878	500	500	60989	-75254
1156	882	500	500	60989	-75254
1157	882	500	500	60989	-75028
1158	880	500	500	61217	-75028
1159	882	500	500	61217	-75028
1160	886	500	500	61217	-74802
1161	885	500	500	61441	-74802
1162	885	500	500	61441	-74802
1163	887	500	500	61441	-74577
1164	890	500	500	61664	-74577
1165	890	500	500	61664	-74577
1166	890	500	500	61664	-74352
1167	891	500	500	61892	-74352
1168	894	500	500	61892	-74352
1169	893	500	500	61892	-74125
1170	894	500	500	62120	-74125
1171	894	500	500	62120	-74125
1172	898	500	500	62120	-73899
1173	898	500	500	62346	-73899
1174	897	500	500	62346	-73899
1175	897	500	500	62346	-73675
1176	901	500	500	62574	-73675
1177	900	500	500	62574	-73675
1178	901	500	500	62574	-73454
1179	902	500	500	62799	-73454
1180	901	500	500	62799	-73454
1181	901	500	500	62799	-73233
1182	904	500	500	63027	-73233
1183	905	500	500	63027	-73233
1184	905	500	500	63027	-73011
1185	906	500	500	63254	-73011
1186	905	500	500	63254	-73011
1187	905	500	500	63254	-72792
1188	910	500	500	63478	-72792
1189	909	500	500	63478	-72792
1190	910	500	500	63478	-72573
1191	910	500	500	63700	-72573
1192	909	500	500	63700	-72573
1193	910	500	500	63700	-72352
1194	909	500	500	63929	-72352
1195	913	500	500	63929	-72352
1196	914	500	500	63929	-72137
1197	912	500	500	64154	-72137
1198	914	500	500	64154	-72137
1199	913	500	500	64154	-71917
1200	913	500	500	64380	-71917
1201	914	500	500	64380	-71917
1202	912	500	500	64380	-71700
1203	913	500	500	64608	-71700
1204	914	500	500	64608	-71700
1205	914	500	500	64608	-71485
1206	914	500	500	64832	-71485
1207	915	500	500	64832	-71485
1208	918	500	500	64832	-71266
1209	918	500	500	65058	-71266
1210	917	500	500	65058	-71266
1211	916	500	500	65058	-71054
1212	918	500	500	65282	-71054
1213	917	500	500	65282	-71054
1214	918	500	500	65282	-70837
1215	918	500	500	65504	-70837
1216	917	500	500	65504	-70837
1217	918	500	500	65504	-70626
1218	917	500	500	65724	-70626
1219	918	500	500	65724	-70626
1220	918	500	500	65724	-70411
1221	917	500	500	65947	-70411
1222	917	500	500	65947	-70411
1223	918	500	500	65947	-70198
1224	917	500	500	66165	-70198
1225	919	500	500	66165	-70198
1226	918	500	500	66165	-69984
1227	917	500	500	66387	-69984
1228	918	500	500	66387	-69984
1229	917	500	500	66387	-69767
1230	917	500	500	66606	-69767
1231	918	500	500	66606	-69767
1232	915	500	500	66606	-69553
1233	916	500	500	66822	-69553
1234	917	500	500	66822	-69553
1235	917	500	500	66822	-69340
1236	917	500	500	67037	-69340
1237	917	500	500	67037	-69340
1238	918	500	500	67037	-69129
1239	918	500	500	67252	-69129
1240	917	500	500	67252	-69129
1241	917	500	500	67252	-68915
1242	918	500	500	67252	-68915
1243	918	500	500	67465	-68915
1244	918	500	500	67465	-68915
1245	918	500	500	67465	-68703
1246	917	500	500	67677	-68703
1247	918	500	500	67677	-68703
1248	918	500	500	67677	-68493
1249	917	500	500	67887	-68493
1250	918	500	500	67887	-68493
1251	917	500	500	67887	-68281
1252	917	500	500	68094	-68281
1253	918	500	500	68094	-68281
1254	918	500	500	68094	-68074
1255	912	500	500	68303	-68074
1256	912	500	500	68303	-68074
1257	913	500	500	68303	-67862
1258	913	500	500	68509	-67862
1259	913	500	500	68509	-67862
1260	913	500	500	68509	-67655
1261	914	500	500	68715	-67655
1262	914	500	500	68715	-67655
1263	914	500	500	68715	-67449
1264	914	500	500	68918	-67449
1265	913	500	500	68918	-67449
1266	912	500	500	68918	-67243
1267	913	500	500	69121	-67243
1268	914	500	500	69121	-67243
1269	914	500	500	69121	-67039
1270	914	500	500	69323	-67039
1271	914	500	500	69323	-67039
1272	914	500	500	69323	-66841
1273	914	500	500	69526	-66841
1274	914	500	500	69526	-66841
1275	914	500	500	69526	-66643
1276	913	500	500	69727	-66643
1277	913	500	500	69727	-66643
1278	913	500	500	69727	-66448
1279	912	500	500	69928	-66448
1280	913	500	500	69928	-66448
1281	913	500	500	69928	-66257
1282	914	500	500	70127	-66257
1283	914	500	500	70127	-66257
1284	914	500	500	70127	-66069
1285	913	500	500	70328	-66069
1286	913	500	500	70328	-66069
1287	913	500	500	70328	-65885
1288	911	500	500	70525	-65885
1289	913	500	500	70525	-65885
1290	914	500	500	70525	-65699
1291	913	500	500	70726	-65699
1292	913	500	500	70726	-65699
1293	913	500	500	70726	-65518
1294	914	500	500	70924	-65518
1295	914	500	500	70924	-65518
1296	914	500	500	70924	-65340
1297	914	500	500	71118	-65340
1298	912	500	500	71118	-65340
1299	912	500	500	71118	-65163
1300	913	500	500	71315	-65163
1301	913	500	500	71315	-65163
1302	914	500	500	71315	-64990
1303	913	500	500	71506	-64990
1304	912	500	500	71506	-64990
1305	912	500	500	71506	-64821
1306	913	500	500	71700	-64821
1307	914	500	500	71700	-64821
1308	914	500	500	71700	-64653
1309	914	500	500	71886	-64653
1310	914	500	500	71886	-64653
1311	913	500	500	71886	-64488
1312	912	500	500	72082	-64488
1313	913	500	500	72082	-64488
1314	913	500	500	72082	-64320
1315	914	500	500	72274	-64320
1316	913	500	500	72274	-64320
1317	913	500	500	72274	-64154
1318	914	500	500	72465	-64154
1319	913	500	500	72465	-64154
1320	914	500	500	72465	-63992
1321	913	500	500	72657	-63992
1322	912	500	500	72657	-63992
1323	912	500	500	72657	-63830
1324	912	500	500	72846	-63830
1325	914	500	500	72846	-63830
1326	913	500	500	72846	-63666
1327	912	500	500	73034	-63666
1328	914	500	500	73034	-63666
1329	914	500	500	73034	-63503
1330	914	500	500	73223	-63503
1331	914	500	500	73223	-63503
1332	914	500	500	73223	-63343
1333	914	500	500	73408	-63343
1334	912	500	500	73408	-63343
1335	912	500	500	73408	-63181
1336	910	500	500	73594	-63181
1337	908	500	500	73594	-63181
1338	908	500	500	73594	-63022
1339	910	500	500	73780	-63022
1340	910	500	500	73780	-63022
1341	910	500	500	73780	-62866
1342	910	500	500	73958	-62866
1343	909	500	500	73958	-62866
1344	909	500	500	73958	-62708
1345	910	500	500	74143	-62708
1346	910	500	500	74143	-62708
1347	910	500	500	74143	-62550
1348	908	500	500	74324	-62550
1349	906	500	500	74324	-62550
1350	906	500	500	74324	-62392
1351	906	500	500	74503	-62392
1352	906	500	500	74503	-62392
1353	905	500	500	74503	-62235
1354	906	500	500	74684	-62235
1355	906	500	500	74684	-62235
1356	906	500	500	74684	-62080
1357	906	500	500	74684	-62080
1358	906	500	500	74863	-62080
1359	904	500	500	74863	-61927
1360	902	500	500	74863	-61927
1361	901	500	500	75042	-61927
1362	901	500	500	75042	-61927
1363	902	500	500	75042	-61773
1364	902	500	500	75217	-61773
1365	900	500	500	75217	-61773
1366	902	500	500	75217	-61615
1367	901	500	500	75395	-61615
1368	901	500	500	75395	-61615
1369	902	500	500	75395	-61459
1370	901	500	500	75568	-61459
1371	901	500	500	75568	-61459
1372	898	500	500	75568	-61305
1373	897	500	500	75739	-61305
1374	897	500	500	75739	-61305
1375	898	500	500	75739	-61149
1376	897	500	500	75911	-61149
1377	898	500	500	75911	-61149
1378	898	500	500	75911	-60995
1379	898	500	500	76083	-60995
1380	897	500	500	76083	-60995
1381	898	500	500	76083	-60844
1382	897	500	500	76253	-60844
1383	898	500	500	76253	-60844
1384	897	500	500	76253	-60694
1385	894	500	500	76421	-60694
1386	894	500	500	76421	-60694
1387	895	500	500	76421	-60542
1388	893	500	500	76592	-60542
1389	894	500	500	76592	-60542
1390	894	500	500	76592	-60392
1391	894	500	500	76762	-60392
1392	894	500	500	76762	-60392
1393	894	500	500	76762	-60238
1394	894	500	500	76928	-60238
1395	894	500	500	76928	-60238
1396	894	500	500	76928	-60085
1397	894	500	500	77098	-60085
1398	894	500	500	77098	-60085
1399	895	500	500	77098	-59934
1400	893	500	500	77263	-59934
1401	893	500	500	77263	-59934
1402	893	500	500	77263	-59784
1403	893	500	500	77432	-59784
1404	891	500	500	77432	-59784
1405	889	500	500	77432	-59630
1406	889	500	500	77597	-59630
1407	890	500	500	77597	-59630
1408	889	500	500	77597	-59477
1409	890	500	500	77758	-59477
1410	889	500	500	77758	-59477
1411	890	500	500	77758	-59325
1412	889	500	500	77923	-59325
1413	889	500	500	77923	-59325
1414	889	500	500	77923	-59175
1415	888	500	500	78085	-59175
1416	890	500	500	78085	-59175
1417	889	500	500	78085	-59021
1418	890	500	500	78251	-59021
1419	889	500	500	78251	-59021
1420	889	500	500	78251	-58874
1421	890	500	500	78415	-58874
1422	891	500	500	78415	-58874
1423	890	500	500	78415	-58727
1424	888	500	500	78578	-58727
1425	889	500	500	78578	-58727
1426	889	500	500	78578	-58579
1427	890	500	500	78744	-58579
1428	890	500	500	78744	-58579
1429	890	500	500	78744	-58431
1430	889	500	500	78907	-58431
1431	889	500	500	78907	-58431
1432	890	500	500	78907	-58280
1433	890	500	500	79071	-58280
1434	890	500	500	79071	-58280
1435	890	500	500	79071	-58133
1436	888	500	500	79231	-58133
1437	889	500	500	79231	-58133
1438	889	500	500	79231	-57986
1439	889	500	500	79396	-57986
1440	889	500	500	79396	-57986
1441	890	500	500	79396	-57841
1442	890	500	500	79556	-57841
1443	890	500	500	79556	-57841
1444	888	500	500	79556	-57694
1445	893	500	500	79718	-57694
1446	894	500	500	79718	-57694
1447	894	500	500	79718	-57544
1448	895	500	500	79878	-57544
1449	894	500	500	79878	-57544
1450	894	500	500	79878	-57397
1451	893	500	500	80038	-57397
1452	894	500	500	80038	-57397
1453	894	500	500	80038	-57249
1454	895	500	500	80198	-57249
1455	895	500	500	80198	-57249
1456	894	500	500	80198	-57103
1457	893	500	500	80358	-57103
1458	894	500	500	80358	-57103
1459	894	500	500	80358	-56955
1460	895	500	500	80517	-56955
1461	894	500	500	80517	-56955
1462	894	500	500	80517	-56812
1463	894	500	500	80680	-56812
1464	894	500	500	80680	-56812
1465	893	500	500	80680	-56669
1466	894	500	500	80839	-56669
1467	894	500	500	80839	-56669
1468	895	500	500	80839	-56525
1469	894	500	500	80998	-56525
1470	894	500	500	80998	-56525
1471	893	500	500	80998	-56382
1472	894	500	500	80998	-56382
1473	894	500	500	81157	-56382
1474	894	500	500	81157	-56237
1475	894	500	500	81157	-56237
1476	895	500	500	81315	-56237
1477	894	500	500	81315	-56237
1478	892	500	500	81315	-56095
1479	892	500	500	81474	-56095
1480	893	500	500	81474	-56095
1481	894	500	500	81474	-55953
1482	894	500	500	81631	-55953
1483	894	500	500	81631	-55953
1484	894	500	500	81631	-55812
1485	893	500	500	81787	-55812
1486	894	500	500	81787	-55812
1487	894	500	500	81787	-55669
1488	893	500	500	81945	-55669
1489	893	500	500	81945	-55669
1490	894	500	500	81945	-55526
1491	895	500	500	82098	-55526
1492	895	500	500	82098	-55526
1493	893	500	500	82098	-55383
1494	893	500	500	82255	-55383
1495	893	500	500	82255	-55383
1496	895	500	500	82255	-55240
1497	895	500	500	82412	-55240
1498	894	500	500	82412	-55240
1499	893	500	500	82412	-55098
1500	893	500	500	82566	-55098
1501	894	500	500	82566	-55098
1502	895	500	500	82566	-54954
1503	893	500	500	82723	-54954
1504	894	500	500	82723	-54954
1505	894	500	500	82723	-54816
1506	894	500	500	82879	-54816
1507	894	500	500	82879	-54816
1508	893	500	500	82879	-54678
1509	893	500	500	83034	-54678
1510	894	500	500	83034	-54678
1511	893	500	500	83034	-54540
1512	894	500	500	83190	-54540
1513	893	500	500	83190	-54540
1514	893	500	500	83190	-54401
1515	894	500	500	83343	-54401
1516	894	500	500	83343	-54401
1517	894	500	500	83343	-54264
1518	894	500	500	83499	-54264
1519	893	500	500	83499	-54264
1520	893	500	500	83499	-54121
1521	892	500	500	83651	-54121
1522	894	500	500	83651	-54121
1523	893	500	500	83651	-53982
1524	894	500	500	83804	-53982
1525	893	500	500	83804	-53982
1526	893	500	500	83804	-53846
1527	894	500	500	83958	-53846
1528	894	500	500	83958	-53846
1529	894	500	500	83958	-53708
1530	893	500	500	84110	-53708
1531	893	500	500	84110	-53708
1532	894	500	500	84110	-53570
1533	893	500	500	84264	-53570
1534	894	500	500	84264	-53570
1535	894	500	500	84264	-53430
1536	894	500	500	84416	-53430
1537	893	500	500	84416	-53430
1538	893	500	500	84416	-53291
1539	894	500	500	84570	-53291
1540	893	500	500	84570	-53291
1541	895	500	500	84570	-53151
1542	892	500	500	84721	-53151
1543	894	500	500	84721	-53151
1544	894	500	500	84721	-53014
1545	894	500	500	84874	-53014
1546	894	500	500	84874	-53014
1547	894	500	500	84874	-52875
1548	895	500	500	85027	-52875
1549	894	500	500	85027	-52875
1550	893	500	500	85027	-52742
1551	894	500	500	85179	-52742
1552	893	500	500	85179	-52742
1553	894	500	500	85179	-52608
1554	892	500	500	85329	-52608
1555	893	500	500	85329	-52608
1556	894	500	500	85329	-52472
1557	894	500	500	85482	-52472
1558	894	500	500	85482	-52472
1559	893	500	500	85482	-52335
1560	894	500	500	85634	-52335
1561	894	500	500	85634	-52335
1562	894	500	500	85634	-52203
1563	894	500	500	85784	-52203
1564	893	500	500	85784	-52203
1565	893	500	500	85784	-52065
1566	894	500	500	85932	-52065
1567	894	500	500	85932	-52065
1568	895	500	500	85932	-51930
1569	892	500	500	86080	-51930
1570	893	500	500	86080	-51930
1571	893	500	500	86080	-51799
1572	893	500	500	86227	-51799
1573	894	500	500	86227	-51799
1574	893	500	500	86227	-51666
1575	895	500	500	86380	-51666
1576	895	500	500	86380	-51666
1577	893	500	500	86380	-51531
1578	895	500	500	86530	-51531
1579	893	500	500	86530	-51531
1580	895	500	500	86530	-51396
1581	892	500	500	86679	-51396
1582	893	500	500	86679	-51396
1583	894	500	500	86679	-51262
1584	894	500	500	86830	-51262
1585	893	500	500	86830	-51262
1586	893	500	500	86830	-51126
1587	894	500	500	86979	-51126
1588	894	500	500	86979	-51126
1589	894	500	500	86979	-50994
1590	894	500	500	86979	-50994
1591	894	500	500	87127	-50994
1592	894	500	500	87127	-50859
1593	894	500	500	87127	-50859
1594	893	500	500	87274	-50859
1595	893	500	500	87274	-50728
1596	898	500	500	87274	-50728
1597	898	500	500	87419	-50728
1598	898	500	500	87419	-50728
1599	898	500	500	87419	-50596
1600	897	500	500	87570	-50596
1601	897	500	500	87570	-50596
1602	898	500	500	87570	-50465
1603	899	500	500	87717	-50465
1604	898	500	500	87717	-50465
1605	897	500	500	87717	-50333
1606	897	500	500	87861	-50333
1607	898	500	500	87861	-50333
1608	898	500	500	87861	-50204
1609	898	500	500	88005	-50204
1610	898	500	500	88005	-50204
1611	897	500	500	88005	-50070
1612	898	500	500	88153	-50070
1613	898	500	500	88153	-50070
1614	898	500	500	88153	-49939
1615	898	500	500	88296	-49939
1616	898	500	500	88296	-49939
1617	897	500	500	88296	-49809
1618	897	500	500	88443	-49809
1619	897	500	500	88443	-49809
1620	897	500	500	88443	-49682
1621	898	500	500	88591	-49682
1622	898	500	500	88591	-49682
1623	898	500	500	88591	-49555
1624	897	500	500	88735	-49555
1625	898	500	500	88735	-49555
1626	897	500	500	88735	-49425
1627	898	500	500	88881	-49425
1628	898	500	500	88881	-49425
1629	898	500	500	88881	-49293
1630	897	500	500	89026	-49293
1631	897	500	500	89026	-49293
1632	898	500	500	89026	-49163
1633	898	500	500	89170	-49163
1634	899	500	500	89170	-49163
1635	898	500	500	89170	-49035
1636	896	500	500	89315	-49035
1637	897	500	500	89315	-49035
1638	897	500	500	89315	-48905
1639	898	500	500	89457	-48905
1640	898	500	500	89457	-48905
1641	898	500	500	89457	-48775
1642	897	500	500	89602	-48775
1643	897	500	500	89602	-48775
1644	897	500	500	89602	-48649
1645	898	500	500	89744	-48649
1646	898	500	500	89744	-48649
1647	897	500	500	89744	-48524
1648	897	500	500	89886	-48524
1649	898	500	500	89886	-48524
1650	897	500	500	89886	-48395
1651	898	500	500	90027	-48395
1652	898	500	500	90027	-48395
1653	898	500	500	90027	-48267
1654	898	500	500	90169	-48267
1655	897	500	500	90169	-48267
1656	897	500	500	90169	-48143
1657	898	500	500	90307	-48143
1658	898	500	500	90307	-48143
1659	898	500	500	90307	-48016
1660	896	500	500	90450	-48016
1661	897	500	500	90450	-48016
1662	898	500	500	90450	-47892
1663	897	500	500	90591	-47892
1664	898	500	500	90591	-47892
1665	898	500	500	90591	-47769
1666	898	500	500	90730	-47769
1667	898	500	500	90730	-47769
1668	897	500	500	90730	-47648
1669	896	500	500	90871	-47648
1670	898	500	500	90871	-47648
1671	897	500	500	90871	-47525
1672	899	500	500	91012	-47525
1673	897	500	500	91012	-47525
1674	898	500	500	91012	-47402
1675	898	500	500	91155	-47402
1676	898	500	500	91155	-47402
1677	898	500	500	91155	-47278
1678	897	500	500	91296	-47278
1679	898	500	500	91296	-47278
1680	897	500	500	91296	-47158
1681	897	500	500	91438	-47158
1682	898	500	500	91438	-47158
1683	898	500	500	91438	-47035
1684	899	500	500	91577	-47035
1685	897	500	500	91577	-47035
1686	898	500	500	91577	-46914
1687	898	500	500	91719	-46914
1688	898	500	500	91719	-46914
1689	898	500	500	91719	-46790
1690	898	500	500	91856	-46790
1691	898	500	500	91856	-46790
1692	897	500	500	91856	-46668
1693	898	500	500	91993	-46668
1694	898	500	500	91993	-46668
1695	898	500	500	91993	-46549
1696	898	500	500	92131	-46549
1697	897	500	500	92131	-46549
1698	897	500	500	92131	-46431
1699	898	500	500	92270	-46431
1700	897	500	500	92270	-46431
1701	897	500	500	92270	-46308
1702	897	500	500	92404	-46308
1703	898	500	500	92404	-46308
1704	898	500	500	92404	-46184
1705	898	500	500	92543	-46184
1706	897	500	500	92543	-46184
1707	898	500	500	92543	-46063
1708	898	500	500	92682	-46063
1709	898	500	500	92682	-46063
1710	897	500	500	92682	-45938
1711	898	500	500	92817	-45938
1712	898	500	500	92817	-45938
1713	896	500	500	92817	-45816
1714	898	500	500	92817	-45816
1715	898	500	500	92954	-45816
1716	898	500	500	92954	-45816
1717	897	500	500	92954	-45694
1718	897	500	500	93090	-45694
1719	898	500	500	93090	-45694
1720	897	500	500	93090	-45573
1721	898	500	500	93226	-45573
1722	897	500	500	93226	-45573
1723	897	500	500	93226	-45453
1724	898	500	500	93360	-45453
1725	898	500	500	93360	-45453
1726	898	500	500	93360	-45329
1727	897	500	500	93496	-45329
1728	898	500	500	93496	-45329
1729	896	500	500	93496	-45205
1730	897	500	500	93630	-45205
1731	898	500	500	93630	-45205
1732	898	500	500	93630	-45082
1733	898	500	500	93768	-45082
1734	898	500	500	93768	-45082
1735	897	500	500	93768	-44957
1736	898	500	500	93901	-44957
1737	898	500	500	93901	-44957
1738	898	500	500	93901	-44834
1739	896	500	500	94034	-44834
1740	897	500	500	94034	-44834
1741	898	500	500	94034	-44712
1742	898	500	500	94169	-44712
1743	898	500	500	94169	-44712
1744	898	500	500	94169	-44593
1745	898	500	500	94306	-44593
1746	897	500	500	94306	-44593
1747	898	500	500	94306	-44472
1748	898	500	500	94436	-44472
1749	896	500	500	94436	-44472
1750	898	500	500	94436	-44354
1751	898	500	500	94573	-44354
1752	898	500	500	94573	-44354
1753	898	500	500	94573	-44233
1754	898	500	500	94707	-44233
1755	898	500	500	94707	-44233
1756	897	500	500	94707	-44114
1757	898	500	500	94839	-44114
1758	897	500	500	94839	-44114
1759	898	500	500	94839	-43998
1760	898	500	500	94973	-43998
1761	898	500	500	94973	-43998
1762	896	500	500	94973	-43876
1763	897	500	500	95106	-43876
1764	897	500	500	95106	-43876
1765	898	500	500	95106	-43757
1766	898	500	500	95240	-43757
1767	898	500	500	95240	-43757
1768	898	500	500	95240	-43640
1769	896	500	500	95373	-43640
1770	898	500	500	95373	-43640
1771	897	500	500	95373	-43522
1772	898	500	500	95506	-43522
1773	898	500	500	95506	-43522
1774	897	500	500	95506	-43405
1775	896	500	500	95636	-43405
1776	898	500	500	95636	-43405
1777	897	500	500	95636	-43285
1778	898	500	500	95769	-43285
1779	898	500	500	95769	-43285
1780	898	500	500	95769	-43164
1781	898	500	500	95900	-43164
1782	898	500	500	95900	-43164
1783	898	500	500	95900	-43045
1784	898	500	500	96031	-43045
1785	898	500	500	96031	-43045
1786	898	500	500	96031	-42924
1787	898	500	500	96160	-42924
1788	897	500	500	96160	-42924
1789	898	500	500	96160	-42804
1790	897	500	500	96290	-42804
1791	898	500	500	96290	-42804
1792	898	500	500	96290	-42683
1793	898	500	500	96419	-42683
1794	897	500	500	96419	-42683
1795	898	500	500	96419	-42567
1796	898	500	500	96551	-42567
1797	896	500	500	96551	-42567
1798	898	500	500	96551	-42450
1799	898	500	500	96682	-42450
1800	898	500	500	96682	-42450
1801	896	500	500	96682	-42336
1802	898	500	500	96813	-42336
1803	897	500	500	96813	-42336
1804	898	500	500	96813	-42221
1805	898	500	500	96941	-42221
1806	898	500	500	96941	-42221
1807	897	500	500	96941	-42107
1808	897	500	500	97069	-42107
1809	897	500	500	97069	-42107
1810	902	500	500	97069	-41996
1811	902	500	500	97199	-41996
1812	902	500	500	97199	-41996
1813	902	500	500	97199	-41876
1814	902	500	500	97330	-41876
1815	901	500	500	97330	-41876
1816	901	500	500	97330	-41759
1817	902	500	500	97458	-41759
1818	901	500	500	97458	-41759
1819	902	500	500	97458	-41644
1820	902	500	500	97587	-41644
1821	902	500	500	97587	-41644
1822	901	500	500	97587	-41535
1823	901	500	500	97714	-41535
1824	902	500	500	97714	-41535
1825	901	500	500	97714	-41423
1826	901	500	500	97843	-41423
1827	902	500	500	97843	-41423
1828	902	500	500	97843	-41311
1829	902	500	500	97969	-41311
1830	901	500	500	97969	-41311
1831	900	500	500	97969	-41194
1832	901	500	500	97969	-41194
1833	902	500	500	98095	-41194
1834	901	500	500	98095	-41194
1835	902	500	500	98095	-41078
1836	902	500	500	98221	-41078
1837	901	500	500	98221	-41078
1838	902	500	500	98221	-40962
1839	901	500	500	98349	-40962
1840	902	500	500	98349	-40962
1841	902	500	500	98349	-40846
1842	901	500	500	98474	-40846
1843	902	500	500	98474	-40846
1844	901	500	500	98474	-40730
1845	902	500	500	98603	-40730
1846	901	500	500	98603	-40730
1847	902	500	500	98603	-40616
1848	902	500	500	98729	-40616
1849	901	500	500	98729	-40616
1850	902	500	500	98729	-40502
1851	901	500	500	98855	-40502
1852	901	500	500	98855	-40502
1853	902	500	500	98855	-40389
1854	901	500	500	98978	-40389
1855	902	500	500	98978	-40389
1856	900	500	500	98978	-40279
1857	901	500	500	99104	-40279
1858	901	500	500	99104	-40279
1859	902	500	500	99104	-40166
1860	902	500	500	99228	-40166
1861	901	500	500	99228	-40166
1862	902	500	500	99228	-40055
1863	902	500	500	99353	-40055
1864	902	500	500	99353	-40055
1865	902	500	500	99353	-39948
1866	901	500	500	99477	-39948
1867	901	500	500	99477	-39948
1868	901	500	500	99477	-39832
1869	902	500	500	99602	-39832
1870	902	500	500	99602	-39832
1871	902	500	500	99602	-39722
1872	902	500	500	99726	-39722
1873	901	500	500	99726	-39722
1874	901	500	500	99726	-39615
1875	902	500	500	99853	-39615
1876	901	500	500	99853	-39615
1877	902	500	500	99853	-39512
1878	902	500	500	99978	-39512
1879	901	500	500	99978	-39512
1880	902	500	500	99978	-39403
1881	901	500	500	100101	-39403
1882	901	500	500	100101	-39403
1883	901	500	500	100101	-39298
1884	901	500	500	100221	-39298
1885	902	500	500	100221	-39298
1886	902	500	500	100221	-39188
1887	902	500	500	100344	-39188
1888	901	500	500	100344	-39188
1889	901	500	500	100344	-39078
1890	902	500	500	100468	-39078
1891	901	500	500	100468	-39078
1892	902	500	500	100468	-38974
1893	900	500	500	100584	-38974
1894	901	500	500	100584	-38974
1895	902	500	500	100584	-38866
1896	902	500	500	100708	-38866
1897	902	500	500	100708	-38866
1898	902	500	500	100708	-38760
1899	902	500	500	100829	-38760
1900	901	500	500	100829	-38760
1901	901	500	500	100829	-38651
1902	902	500	500	100949	-38651
1903	902	500	500	100949	-38651
1904	901	500	500	100949	-38541
1905	902	500	500	101069	-38541
1906	902	500	500	101069	-38541
1907	901	500	500	101069	-38433
1908	902	500	500	101189	-38433
1909	902	500	500	101189	-38433
1910	900	500	500	101189	-38326
1911	901	500	500	101309	-38326
1912	902	500	500	101309	-38326
1913	901	500	500	101309	-38223
1914	903	500	500	101431	-38223
1915	902	500	500	101431	-38223
1916	902	500	500	101431	-38115
1917	902	500	500	101551	-38115
1918	901	500	500	101551	-38115
1919	901	500	500	101551	-38007
1920	902	500	500	101674	-38007
1921	902	500	500	101674	-38007
1922	902	500	500	101674	-37901
1923	902	500	500	101793	-37901
1924	902	500	500	101793	-37901
1925	902	500	500	101793	-37786
1926	902	500	500	101912	-37786
1927	902	500	500	101912	-37786
1928	902	500	500	101912	-37676
1929	902	500	500	102029	-37676
1930	902	500	500	102029	-37676
1931	901	500	500	102029	-37570
1932	902	500	500	102147	-37570
1933	901	500	500	102147	-37570
1934	900	500	500	102147	-37467
1935	901	500	500	102262	-37467
1936	901	500	500	102262	-37467
1937	902	500	500	102262	-37359
1938	900	500	500	102380	-37359
1939	902	500	500	102380	-37359
1940	902	500	500	102380	-37253
1941	901	500	500	102499	-37253
1942	901	500	500	102499	-37253
1943	902	500	500	102499	-37143
1944	901	500	500	102612	-37143
1945	901	500	500	102612	-37143
1946	901	500	500	102612	-37032
1947	902	500	500	102733	-37032
1948	901	500	500	102733	-37032
1949	901	500	500	102733	-36924
1950	901	500	500	102733	-36924
1951	902	500	500	102852	-36924
1952	902	500	500	102852	-36924
1953	902	500	500	102852	-36813
1954	902	500	500	102971	-36813
1955	902	500	500	102971	-36813
1956	902	500	500	102971	-36704
1957	902	500	500	103088	-36704
1958	902	500	500	103088	-36704
1959	902	500	500	103088	-36594
1960	902	500	500	103204	-36594
1961	902	500	500	103204	-36594
1962	902	500	500	103204	-36487
1963	901	500	500	103318	-36487
1964	901	500	500	103318	-36487
1965	901	500	500	103318	-36382
1966	900	500	500	103435	-36382
1967	900	500	500	103435	-36382
1968	901	500	500	103435	-36276
1969	902	500	500	103550	-36276
1970	901	500	500	103550	-36276
1971	901	500	500	103550	-36170
1972	902	500	500	103668	-36170
1973	902	500	500	103668	-36170
1974	902	500	500	103668	-36062
1975	901	500	500	103783	-36062
1976	902	500	500	103783	-36062
1977	902	500	500	103783	-35954
1978	902	500	500	103899	-35954
1979	901	500	500	103899	-35954
1980	901	500	500	103899	-35852
1981	903	500	500	104014	-35852
1982	902	500	500	104014	-35852
1983	902	500	500	104014	-35742
1984	902	500	500	104127	-35742
1985	902	500	500	104127	-35742
1986	902	500	500	104127	-35637
1987	902	500	500	104241	-35637
1988	902	500	500	104241	-35637
1989	902	500	500	104241	-35532
1990	902	500	500	104355	-35532
1991	901	500	500	104355	-35532
1992	902	500	500	104355	-35431
1993	901	500	500	104468	-35431
1994	901	500	500	104468	-35431
1995	901	500	500	104468	-35323
1996	901	500	500	104580	-35323
1997	901	500	500	104580	-35323
1998	902	500	500	104580	-35219
1999	901	500	500	104689	-35219
2000	902	500	500	104689	-35219
2001	901	500	500	104689	-35113
2002	902	500	500	104805	-35113
2003	901	500	500	104805	-35113
2004	901	500	500	104805	-35008
2005	902	500	500	104919	-35008
2006	901	500	500	104919	-35008
2007	901	500	500	104919	-34901
2008	902	500	500	105032	-34901
2009	901	500	500	105032	-34901
2010	901	500	500	105032	-34794
2011	902	500	500	105147	-34794
2012	902	500	500	105147	-34794
2013	901	500	500	105147	-34688
2014	902	500	500	105260	-34688
2015	902	500	500	105260	-34688
2016	901	500	500	105260	-34581
2017	901	500	500	105370	-34581
2018	902	500	500	105370	-34581
2019	902	500	500	105370	-34475
2020	901	500	500	105484	-34475
2021	902	500	500	105484	-34475
2022	902	500	500	105484	-34372
2023	902	500	500	105597	-34372
2024	901	500	500	105597	-34372
2025	902	500	500	105597	-34269
2026	901	500	500	105713	-34269
2027	901	500	500	105713	-34269
2028	902	500	500	105713	-34171
2029	902	500	500	105825	-34171
2030	901	500	500	105825	-34171
2031	903	500	500	105825	-34065
2032	902	500	500	105937	-34065
2033	902	500	500	105937	-34065
2034	901	500	500	105937	-33959
2035	902	500	500	106046	-33959
2036	902	500	500	106046	-33959
2037	902	500	500	106046	-33857
2038	901	500	500	106156	-33857
2039	902	500	500	106156	-33857
2040	902	500	500	106156	-33756
2041	901	500	500	106264	-33756
2042	901	500	500	106264	-33756
2043	902	500	500	106264	-33649
2044	902	500	500	106368	-33649
2045	901	500	500	106368	-33649
2046	901	500	500	106368	-33544
2047	903	500	500	106478	-33544
2048	901	500	500	106478	-33544
2049	901	500	500	106478	-33441
2050	903	500	500	106587	-33441
2051	901	500	500	106587	-33441
2052	901	500	500	106587	-33343
2053	902	500	500	106691	-33343
2054	901	500	500	106691	-33343
2055	901	500	500	106691	-33241
2056	900	500	500	106803	-33241
2057	902	500	500	106803	-33241
2058	900	500	500	106803	-33141
2059	901	500	500	106911	-33141
2060	901	500	500	106911	-33141
2061	902	500	500	106911	-33037
2062	901	500	500	107017	-33037
2063	902	500	500	107017	-33037
2064	902	500	500	107017	-32932
2065	901	500	500	107123	-32932
2066	902	500	500	107123	-32932
2067	902	500	500	107123	-32831
2068	901	500	500	107123	-32831
2069	901	500	500	107233	-32831
2070	902	500	500	107233	-32831
2071	901	500	500	107233	-32726
2072	902	500	500	107338	-32726
2073	902	500	500	107338	-32726
2074	902	500	500	107338	-32624
2075	901	500	500	107447	-32624
2076	902	500	500	107447	-32624
2077	903	500	500	107447	-32522
2078	902	500	500	107556	-32522
2079	905	500	500	107556	-32522
2080	906	500	500	107556	-32423
2081	904	500	500	107662	-32423
2082	904	500	500	107662	-32423
2083	904	500	500	107662	-32325
2084	905	500	500	107771	-32325
2085	906	500	500	107771	-32325
2086	905	500	500	107771	-32226
2087	906	500	500	107878	-32226
2088	906	500	500	107878	-32226
2089	906	500	500	107878	-32134
2090	905	500	500	107985	-32134
2091	905	500	500	107985	-32134
2092	905	500	500	107985	-32033
2093	905	500	500	108091	-32033
2094	905	500	500	108091	-32033
2095	905	500	500	108091	-31932
2096	906	500	500	108197	-31932
2097	905	500	500	108197	-31932
2098	905	500	500	108197	-31836
2099	906	500	500	108304	-31836
2100	906	500	500	108304	-31836
2101	906	500	500	108304	-31744
2102	906	500	500	108406	-31744
2103	906	500	500	108406	-31744
2104	906	500	500	108406	-31641
2105	906	500	500	108511	-31641
2106	906	500	500	108511	-31641
2107	906	500	500	108511	-31542
2108	904	500	500	108616	-31542
2109	905	500	500	108616	-31542
2110	904	500	500	108616	-31448
2111	905	500	500	108717	-31448
2112	904	500	500	108717	-31448
2113	904	500	500	108717	-31352
2114	905	500	500	108823	-31352
2115	904	500	500	108823	-31352
2116	904	500	500	108823	-31256
2117	906	500	500	108926	-31256
2118	905	500	500	108926	-31256
2119	905	500	500	108926	-31162
2120	905	500	500	109028	-31162
2121	905	500	500	109028	-31162
2122	906	500	500	109028	-31067
2123	905	500	500	109128	-31067
2124	906	500	500	109128	-31067
2125	906	500	500	109128	-30965
2126	905	500	500	109229	-30965
2127	905	500	500	109229	-30965
2128	905	500	500	109229	-30865
2129	905	500	500	109329	-30865
2130	906	500	500	109329	-30865
2131	906	500	500	109329	-30769
2132	905	500	500	109428	-30769
2133	905	500	500	109428	-30769
2134	905	500	500	109428	-30670
2135	905	500	500	109534	-30670
2136	906	500	500	109534	-30670
2137	906	500	500	109534	-30574
2138	906	500	500	109636	-30574
2139	906	500	500	109636	-30574
2140	906	500	500	109636	-30477
2141	906	500	500	109737	-30477
2142	906	500	500	109737	-30477
2143	906	500	500	109737	-30383
2144	906	500	500	109839	-30383
2145	905	500	500	109839	-30383
2146	906	500	500	109839	-30288
2147	906	500	500	109940	-30288
2148	905	500	500	109940	-30288
2149	906	500	500	109940	-30195
2150	906	500	500	110044	-30195
2151	904	500	500	110044	-30195
2152	905	500	500	110044	-30104
2153	905	500	500	110144	-30104
2154	905	500	500	110144	-30104
2155	904	500	500	110144	-30010
2156	904	500	500	110245	-30010
2157	906	500	500	110245	-30010
2158	905	500	500	110245	-29916
2159	906	500	500	110344	-29916
2160	905	500	500	110344	-29916
2161	906	500	500	110344	-29822
2162	906	500	500	110440	-29822
2163	905	500	500	110440	-29822
2164	905	500	500	110440	-29729
2165	906	500	500	110540	-29729
2166	905	500	500	110540	-29729
2167	905	500	500	110540	-29631
2168	905	500	500	110644	-29631
2169	906	500	500	110644	-29631
2170	904	500	500	110644	-29533
2171	906	500	500	110743	-29533
2172	906	500	500	110743	-29533
2173	905	500	500	110743	-29437
2174	906	500	500	110839	-29437
2175	906	500	500	110839	-29437
2176	906	500	500	110839	-29343
2177	905	500	500	110942	-29343
2178	905	500	500	110942	-29343
2179	906	500	500	110942	-29254
2180	905	500	500	111041	-29254
2181	905	500	500	111041	-29254
2182	906	500	500	111041	-29161
2183	906	500	500	111142	-29161
2184	905	500	500	111142	-29161
2185	905	500	500	111142	-29069
2186	906	500	500	111142	-29069
2187	904	500	500	111238	-29069
2188	905	500	500	111238	-28972
2189	906	500	500	111238	-28972
2190	904	500	500	111340	-28972
2191	906	500	500	111340	-28972
2192	906	500	500	111340	-28874
2193	906	500	500	111437	-28874
2194	905	500	500	111437	-28874
2195	904	500	500	111437	-28776
2196	906	500	500	111537	-28776
2197	904	500	500	111537	-28776
2198	905	500	500	111537	-28680
2199	906	500	500	111636	-28680
2200	905	500	500	111636	-28680
2201	906	500	500	111636	-28583
2202	906	500	500	111734	-28583
2203	906	500	500	111734	-28583
2204	905	500	500	111734	-28487
2205	906	500	500	111832	-28487
2206	906	500	500	111832	-28487
2207	904	500	500	111832	-28392
2208	906	500	500	111931	-28392
2209	906	500	500	111931	-28392
2210	905	500	500	111931	-28301
2211	904	500	500	112031	-28301
2212	906	500	500	112031	-28301
2213	905	500	500	112031	-28209
2214	905	500	500	112128	-28209
2215	906	500	500	112128	-28209
2216	906	500	500	112128	-28116
2217	905	500	500	112226	-28116
2218	905	500	500	112226	-28116
2219	906	500	500	112226	-28030
2220	905	500	500	112321	-28030
2221	906	500	500	112321	-28030
2222	906	500	500	112321	-27934
2223	906	500	500	112419	-27934
2224	905	500	500	112419	-27934
2225	905	500	500	112419	-27838
2226	906	500	500	112511	-27838
2227	905	500	500	112511	-27838
2228	905	500	500	112511	-27747
2229	906	500	500	112609	-27747
2230	906	500	500	112609	-27747
2231	906	500	500	112609	-27659
2232	905	500	500	112708	-27659
2233	905	500	500	112708	-27659
2234	906	500	500	112708	-27562
2235	906	500	500	112805	-27562
2236	904	500	500	112805	-27562
2237	906	500	500	112805	-27470
2238	906	500	500	112901	-27470
2239	906	500	500	112901	-27470
2240	905	500	500	112901	-27382
2241	906	500	500	113002	-27382
2242	905	500	500	113002	-27382
2243	906	500	500	113002	-27291
2244	906	500	500	113099	-27291
2245	906	500	500	113099	-27291
2246	905	500	500	113099	-27204
2247	905	500	500	113196	-27204
2248	906	500	500	113196	-27204
2249	906	500	500	113196	-27113
2250	906	500	500	113287	-27113
2251	905	500	500	113287	-27113
2252	906	500	500	113287	-27024
2253	906	500	500	113384	-27024
2254	905	500	500	113384	-27024
2255	906	500	500	113384	-26935
2256	906	500	500	113477	-26935
2257	905	500	500	113477	-26935
2258	906	500	500	113477	-26842
2259	906	500	500	113571	-26842
2260	905	500	500	113571	-26842
2261	906	500	500	113571	-26748
2262	906	500	500	113666	-26748
2263	905	500	500	113666	-26748
2264	905	500	500	113666	-26659
2265	906	500	500	113763	-26659
2266	905	500	500	113763	-26659
2267	904	500	500	113763	-26567
2268	906	500	500	113854	-26567
2269	905	500	500	113854	-26567
2270	905	500	500	113854	-26474
2271	904	500	500	113950	-26474
2272	906	500	500	113950	-26474
2273	905	500	500	113950	-26380
2274	904	500	500	114043	-26380
2275	906	500	500	114043	-26380
2276	906	500	500	114043	-26289
2277	905	500	500	114135	-26289
2278	905	500	500	114135	-26289
2279	905	500	500	114135	-26198
2280	906	500	500	114223	-26198
2281	905	500	500	114223	-26198
2282	905	500	500	114223	-26112
2283	906	500	500	114314	-26112
2284	906	500	500	114314	-26112
2285	905	500	500	114314	-26027
2286	906	500	500	114406	-26027
2287	905	500	500	114406	-26027
2288	905	500	500	114406	-25942
2289	905	500	500	114492	-25942
2290	906	500	500	114492	-25942
2291	906	500	500	114492	-25854
2292	906	500	500	114584	-25854
2293	906	500	500	114584	-25854
2294	906	500	500	114584	-25762
2295	906	500	500	114677	-25762
2296	906	500	500	114677	-25762
2297	906	500	500	114677	-25675
2298	906	500	500	114770	-25675
2299	906	500	500	114770	-25675
2300	906	500	500	114770	-25590
2301	906	500	500	114859	-25590
2302	906	500	500	114859	-25590
2303	906	500	500	114859	-25495
2304	906	500	500	114859	-25495
2305	906	500	500	114949	-25495
2306	906	500	500	114949	-25495
2307	906	500	500	114949	-25406
2308	906	500	500	115044	-25406
2309	906	500	500	115044	-25406
2310	906	500	500	115044	-25321
2311	905	500	500	115135	-25321
2312	905	500	500	115135	-25321
2313	906	500	500	115135	-25237
2314	904	500	500	115224	-25237
2315	905	500	500	115224	-25237
2316	905	500	500	115224	-25155
2317	905	500	500	115312	-25155
2318	905	500	500	115312	-25155
2319	904	500	500	115312	-25069
2320	905	500	500	115406	-25069
2321	905	500	500	115406	-25069
2322	904	500	500	115406	-24984
2323	905	500	500	115497	-24984
2324	904	500	500	115497	-24984
2325	904	500	500	115497	-24900
2326	905	500	500	115583	-24900
2327	905	500	500	115583	-24900
2328	905	500	500	115583	-24811
2329	905	500	500	115678	-24811
2330	905	500	500	115678	-24811
2331	906	500	500	115678	-24721
2332	905	500	500	115770	-24721
2333	906	500	500	115770	-24721
2334	905	500	500	115770	-24637
2335	905	500	500	115857	-24637
2336	905	500	500	115857	-24637
2337	906	500	500	115857	-24547
2338	906	500	500	115949	-24547
2339	906	500	500	115949	-24547
2340	905	500	500	115949	-24460
2341	905	500	500	116039	-24460
2342	905	500	500	116039	-24460
2343	905	500	500	116039	-24373
2344	906	500	500	116131	-24373
2345	906	500	500	116131	-24373
2346	905	500	500	116131	-24290
2347	905	500	500	116219	-24290
2348	906	500	500	116219	-24290
2349	905	500	500	116219	-24209
2350	905	500	500	116306	-24209
2351	906	500	500	116306	-24209
2352	906	500	500	116306	-24125
2353	906	500	500	116394	-24125
2354	905	500	500	116394	-24125
2355	905	500	500	116394	-24042
2356	906	500	500	116480	-24042
2357	905	500	500	116480	-24042
2358	905	500	500	116480	-23962
2359	906	500	500	116560	-23962
2360	904	500	500	116560	-23962
2361	905	500	500	116560	-23878
2362	906	500	500	116647	-23878
2363	905	500	500	116647	-23878
2364	906	500	500	116647	-23791
2365	905	500	500	116732	-23791
2366	906	500	500	116732	-23791
2367	905	500	500	116732	-23704
2368	905	500	500	116820	-23704
2369	906	500	500	116820	-23704
2370	905	500	500	116820	-23625
2371	906	500	500	116902	-23625
2372	905	500	500	116902	-23625
2373	906	500	500	116902	-23547
2374	905	500	500	116985	-23547
2375	905	500	500	116985	-23547
2376	906	500	500	116985	-23460
2377	906	500	500	117075	-23460
2378	905	500	500	117075	-23460
2379	904	500	500	117075	-23379
2380	906	500	500	117162	-23379
2381	905	500	500	117162	-23379
2382	906	500	500	117162	-23298
2383	906	500	500	117242	-23298
2384	906	500	500	117242	-23298
2385	905	500	500	117242	-23219
2386	905	500	500	117323	-23219
2387	906	500	500	117323	-23219
2388	904	500	500	117323	-23141
2389	906	500	500	117407	-23141
2390	905	500	500	117407	-23141
2391	905	500	500	117407	-23057
2392	905	500	500	117488	-23057
2393	906	500	500	117488	-23057
2394	906	500	500	117488	-22980
2395	905	500	500	117569	-22980
2396	905	500	500	117569	-22980
2397	906	500	500	117569	-22902
2398	905	500	500	117650	-22902
2399	906	500	500	117650	-22902
2400	906	500	500	117650	-22819
2401	906	500	500	117739	-22819
2402	906	500	500	117739	-22819
2403	905	500	500	117739	-22736
2404	906	500	500	117827	-22736
2405	905	500	500	117827	-22736
2406	906	500	500	117827	-22650
2407	906	500	500	117911	-22650
2408	906	500	500	117911	-22650
2409	905	500	500	117911	-22570
2410	906	500	500	117997	-22570
2411	905	500	500	117997	-22570
2412	905	500	500	117997	-22484
2413	906	500	500	118082	-22484
2414	905	500	500	118082	-22484
2415	905	500	500	118082	-22399
2416	906	500	500	118082	-22399
2417	906	500	500	118168	-22399
2418	906	500	500	118168	-22312
2419	905	500	500	118168	-22312
2420	904	500	500	118252	-22312
2421	905	500	500	118252	-22312
2422	906	500	500	118252	-22229
2423	905	500	500	118332	-22229
2424	906	500	500	118332	-22229
2425	906	500	500	118332	-22148
2426	906	500	500	118416	-22148
2427	906	500	500	118416	-22148
2428	905	500	500	118416	-22068
2429	904	500	500	118499	-22068
2430	906	500	500	118499	-22068
2431	906	500	500	118499	-21986
2432	906	500	500	118578	-21986
2433	906	500	500	118578	-21986
2434	905	500	500	118578	-21911
2435	906	500	500	118658	-21911
2436	906	500	500	118658	-21911
2437	906	500	500	118658	-21829
2438	904	500	500	118742	-21829
2439	904	500	500	118742	-21829
2440	906	500	500	118742	-21746
2441	905	500	500	118829	-21746
2442	905	500	500	118829	-21746
2443	906	500	500	118829	-21660
2444	906	500	500	118910	-21660
2445	906	500	500	118910	-21660
2446	905	500	500	118910	-21580
2447	905	500	500	118987	-21580
2448	905	500	500	118987	-21580
2449	905	500	500	118987	-21502
2450	906	500	500	119075	-21502
2451	905	500	500	119075	-21502
2452	906	500	500	119075	-21413
2453	906	500	500	119157	-21413
2454	906	500	500	119157	-21413
2455	906	500	500	119157	-21329
2456	904	500	500	119237	-21329
2457	904	500	500	119237	-21329
2458	906	500	500	119237	-21250
2459	905	500	500	119315	-21250
2460	905	500	500	119315	-21250
2461	906	500	500	119315	-21171
2462	906	500	500	119395	-21171
2463	906	500	500	119395	-21171
2464	904	500	500	119395	-21096
2465	905	500	500	119480	-21096
2466	905	500	500	119480	-21096
2467	905	500	500	119480	-21014
2468	908	500	500	119560	-21014
2469	909	500	500	119560	-21014
2470	910	500	500	119560	-20938
2471	910	500	500	119640	-20938
2472	910	500	500	119640	-20938
2473	909	500	500	119640	-20862
2474	909	500	500	119721	-20862
2475	910	500	500	119721	-20862
2476	909	500	500	119721	-20781
2477	910	500	500	119803	-20781
2478	910	500	500	119803	-20781
2479	909	500	500	119803	-20696
2480	909	500	500	119886	-20696
2481	910	500	500	119886	-20696
2482	909	500	500	119886	-20612
2483	909	500	500	119962	-20612
2484	909	500	500	119962	-20612
2485	909	500	500	119962	-20534
2486	910	500	500	120043	-20534
2487	910	500	500	120043	-20534
2488	910	500	500	120043	-20452
2489	910	500	500	120125	-20452
2490	909	500	500	120125	-20452
2491	908	500	500	120125	-20371
2492	909	500	500	120206	-20371
2493	909	500	500	120206	-20371
2494	909	500	500	120206	-20291
2495	909	500	500	120286	-20291
2496	909	500	500	120286	-20291
2497	910	500	500	120286	-20214
2498	910	500	500	120364	-20214
2499	910	500	500	120364	-20214
2500	909	500	500	120364	-20140
2501	909	500	500	120446	-20140
2502	910	500	500	120446	-20140
2503	909	500	500	120446	-20063
2504	910	500	500	120526	-20063
2505	910	500	500	120526	-20063
2506	909	500	500	120526	-19990
2507	910	500	500	120606	-19990
2508	908	500	500	120606	-19990
2509	909	500	500	120606	-19915
2510	910	500	500	120680	-19915
2511	909	500	500	120680	-19915
2512	910	500	500	120680	-19847
2513	910	500	500	120761	-19847
2514	909	500	500	120761	-19847
2515	910	500	500	120761	-19768
2516	909	500	500	120844	-19768
2517	909	500	500	120844	-19768
2518	910	500	500	120844	-19690
2519	909	500	500	120924	-19690
2520	909	500	500	120924	-19690
2521	909	500	500	120924	-19612
2522	909	500	500	120999	-19612
2523	910	500	500	120999	-19612
2524	909	500	500	120999	-19540
2525	909	500	500	121075	-19540
2526	910	500	500	121075	-19540
2527	909	500	500	121075	-19470
2528	909	500	500	121158	-19470
2529	910	500	500	121158	-19470
2530	909	500	500	121158	-19390
2531	909	500	500	121238	-19390
2532	910	500	500	121238	-19390
2533	910	500	500	121238	-19312
2534	910	500	500	121238	-19312
2535	909	500	500	121311	-19312
2536	909	500	500	121311	-19236
2537	910	500	500	121311	-19236
2538	909	500	500	121387	-19236
2539	909	500	500	121387	-19168
2540	909	500	500	121387	-19168
2541	909	500	500	121460	-19168
2542	909	500	500	121460	-19096
2543	908	500	500	121460	-19096
2544	910	500	500	121539	-19096
2545	910	500	500	121539	-19096
2546	909	500	500	121539	-19027
2547	909	500	500	121614	-19027
2548	909	500	500	121614	-19027
2549	910	500	500	121614	-18950
2550	909	500	500	121683	-18950
2551	910	500	500	121683	-18950
2552	909	500	500	121683	-18880
2553	908	500	500	121757	-18880
2554	910	500	500	121757	-18880
2555	909	500	500	121757	-18810
2556	909	500	500	121835	-18810
2557	910	500	500	121835	-18810
2558	909	500	500	121835	-18736
2559	910	500	500	121914	-18736
2560	909	500	500	121914	-18736
2561	909	500	500	121914	-18659
2562	910	500	500	121988	-18659
2563	910	500	500	121988	-18659
2564	909	500	500	121988	-18582
2565	910	500	500	122066	-18582
2566	909	500	500	122066	-18582
2567	909	500	500	122066	-18510
2568	910	500	500	122146	-18510
2569	909	500	500	122146	-18510
2570	908	500	500	122146	-18437
2571	910	500	500	122224	-18437
2572	909	500	500	122224	-18437
2573	909	500	500	122224	-18361
2574	910	500	500	122300	-18361
2575	909	500	500	122300	-18361
2576	910	500	500	122300	-18283
2577	909	500	500	122371	-18283
2578	909	500	500	122371	-18283
2579	910	500	500	122371	-18209
2580	909	500	500	122445	-18209
2581	908	500	500	122445	-18209
2582	910	500	500	122445	-18140
2583	910	500	500	122519	-18140
2584	910	500	500	122519	-18140
2585	910	500	500	122519	-18072
2586	910	500	500	122593	-18072
2587	910	500	500	122593	-18072
2588	910	500	500	122593	-18002
2589	909	500	500	122664	-18002
2590	909	500	500	122664	-18002
2591	909	500	500	122664	-17934
2592	909	500	500	122735	-17934
2593	909	500	500	122735	-17934
2594	910	500	500	122735	-17864
2595	910	500	500	122810	-17864
2596	910	500	500	122810	-17864
2597	910	500	500	122810	-17803
2598	909	500	500	122890	-17803
2599	908	500	500	122890	-17803
2600	909	500	500	122890	-17732
2601	909	500	500	122966	-17732
2602	909	500	500	122966	-17732
2603	910	500	500	122966	-17660
2604	910	500	500	123036	-17660
2605	910	500	500	123036	-17660
2606	910	500	500	123036	-17583
2607	909	500	500	123106	-17583
2608	910	500	500	123106	-17583
2609	909	500	500	123106	-17515
2610	909	500	500	123186	-17515
2611	910	500	500	123186	-17515
2612	910	500	500	123186	-17450
2613	909	500	500	123258	-17450
2614	910	500	500	123258	-17450
2615	910	500	500	123258	-17382
2616	910	500	500	123332	-17382
2617	910	500	500	123332	-17382
2618	909	500	500	123332	-17305
2619	909	500	500	123402	-17305
2620	909	500	500	123402	-17305
2621	909	500	500	123402	-17234
2622	910	500	500	123474	-17234
2623	910	500	500	123474	-17234
2624	910	500	500	123474	-17167
2625	910	500	500	123550	-17167
2626	910	500	500	123550	-17167
2627	908	500	500	123550	-17108
2628	908	500	500	123624	-17108
2629	909	500	500	123624	-17108
2630	909	500	500	123624	-17045
2631	909	500	500	123693	-17045
2632	909	500	500	123693	-17045
2633	910	500	500	123693	-16984
2634	910	500	500	123757	-16984
2635	910	500	500	123757	-16984
2636	909	500	500	123757	-16914
2637	909	500	500	123831	-16914
2638	909	500	500	123831	-16914
2639	909	500	500	123831	-16852
2640	909	500	500	123903	-16852
2641	909	500	500	123903	-16852
2642	909	500	500	123903	-16789
2643	910	500	500	123978	-16789
2644	910	500	500	123978	-16789
2645	910	500	500	123978	-16726
2646	908	500	500	124044	-16726
2647	908	500	500	124044	-16726
2648	908	500	500	124044	-16655
2649	910	500	500	124114	-16655
2650	909	500	500	124114	-16655
2651	909	500	500	124114	-16584
2652	909	500	500	124189	-16584
2653	909	500	500	124189	-16584
2654	910	500	500	124189	-16514
2655	910	500	500	124261	-16514
2656	910	500	500	124261	-16514
2657	910	500	500	124261	-16453
2658	908	500	500	124261	-16453
2659	908	500	500	124331	-16453
2660	909	500	500	124331	-16387
2661	909	500	500	124331	-16387
2662	909	500	500	124397	-16387
2663	909	500	500	124397	-16387
2664	910	500	500	124397	-16318
2665	910	500	500	124461	-16318
2666	910	500	500	124461	-16318
2667	909	500	500	124461	-16250
2668	909	500	500	124532	-16250
2669	910	500	500	124532	-16250
2670	909	500	500	124532	-16182
2671	909	500	500	124602	-16182
2672	910	500	500	124602	-16182
2673	909	500	500	124602	-16120
2674	909	500	500	124673	-16120
2675	910	500	500	124673	-16120
2676	910	500	500	124673	-16059
2677	910	500	500	124736	-16059
2678	909	500	500	124736	-16059
2679	909	500	500	124736	-15999
2680	910	500	500	124804	-15999
2681	909	500	500	124804	-15999
2682	909	500	500	124804	-15936
2683	910	500	500	124875	-15936
2684	909	500	500	124875	-15936
2685	910	500	500	124875	-15875
2686	910	500	500	124946	-15875
2687	909	500	500	124946	-15875
2688	910	500	500	124946	-15815
2689	908	500	500	125014	-15815
2690	909	500	500	125014	-15815
2691	910	500	500	125014	-15763
2692	909	500	500	125076	-15763
2693	909	500	500	125076	-15763
2694	910	500	500	125076	-15700
2695	909	500	500	125137	-15700
2696	910	500	500	125137	-15700
2697	909	500	500	125137	-15634
2698	909	500	500	125212	-15634
2699	910	500	500	125212	-15634
2700	909	500	500	125212	-15564
2701	909	500	500	125284	-15564
2702	910	500	500	125284	-15564
2703	910	500	500	125284	-15498
2704	909	500	500	125355	-15498
2705	909	500	500	125355	-15498
2706	909	500	500	125355	-15437
2707	909	500	500	125416	-15437
2708	909	500	500	125416	-15437
2709	909	500	500	125416	-15376
2710	910	500	500	125483	-15376
2711	909	500	500	125483	-15376
2712	908	500	500	125483	-15307
2713	909	500	500	125548	-15307
2714	909	500	500	125548	-15307
2715	909	500	500	125548	-15239
2716	910	500	500	125619	-15239
2717	909	500	500	125619	-15239
2718	910	500	500	125619	-15172
2719	910	500	500	125683	-15172
2720	909	500	500	125683	-15172
2721	910	500	500	125683	-15113
2722	910	500	500	125748	-15113
2723	909	500	500	125748	-15113
2724	910	500	500	125748	-15053
2725	909	500	500	125809	-15053
2726	908	500	500	125809	-15053
2727	909	500	500	125809	-14990
2728	909	500	500	125881	-14990
2729	909	500	500	125881	-14990
2730	910	500	500	125881	-14927
2731	909	500	500	125954	-14927
2732	910	500	500	125954	-14927
2733	910	500	500	125954	-14859
2734	909	500	500	126027	-14859
2735	910	500	500	126027	-14859
2736	909	500	500	126027	-14798
2737	909	500	500	126090	-14798
2738	909	500	500	126090	-14798
2739	909	500	500	126090	-14739
2740	910	500	500	126157	-14739
2741	910	500	500	126157	-14739
2742	909	500	500	126157	-14677
2743	909	500	500	126226	-14677
2744	910	500	500	126226	-14677
2745	909	500	500	126226	-14606
2746	910	500	500	126294	-14606
2747	909	500	500	126294	-14606
2748	909	500	500	126294	-14537
2749	910	500	500	126361	-14537
2750	909	500	500	126361	-14537
2751	909	500	500	126361	-14468
2752	909	500	500	126423	-14468
2753	909	500	500	126423	-14468
2754	910	500	500	126423	-14407
2755	910	500	500	126484	-14407
2756	910	500	500	126484	-14407
2757	910	500	500	126484	-14340
2758	910	500	500	126548	-14340
2759	910	500	500	126548	-14340
2760	909	500	500	126548	-14271
2761	909	500	500	126617	-14271
2762	909	500	500	126617	-14271
2763	910	500	500	126617	-14201
2764	909	500	500	126682	-14201
2765	909	500	500	126682	-14201
2766	909	500	500	126682	-14132
2767	910	500	500	126747	-14132
2768	910	500	500	126747	-14132
2769	910	500	500	126747	-14070
2770	910	500	500	126805	-14070
2771	909	500	500	126805	-14070
2772	909	500	500	126805	-14008
2773	909	500	500	126872	-14008
2774	909	500	500	126872	-14008
2775	909	500	500	126872	-13944
2776	909	500	500	126872	-13944
2777	910	500	500	126940	-13944
2778	910	500	500	126940	-13879
2779	910	500	500	126940	-13879
2780	909	500	500	127010	-13879
2781	909	500	500	127010	-13879
2782	909	500	500	127010	-13818
2783	909	500	500	127076	-13818
2784	909	500	500	127076	-13818
2785	910	500	500	127076	-13759
2786	910	500	500	127134	-13759
2787	910	500	500	127134	-13759
2788	910	500	500	127134	-13706
2789	910	500	500	127193	-13706
2790	908	500	500	127193	-13706
2791	910	500	500	127193	-13641
2792	909	500	500	127264	-13641
2793	909	500	500	127264	-13641
2794	909	500	500	127264	-13578
2795	910	500	500	127332	-13578
2796	909	500	500	127332	-13578
2797	910	500	500	127332	-13508
2798	910	500	500	127399	-13508
2799	910	500	500	127399	-13508
2800	909	500	500	127399	-13446
2801	909	500	500	127458	-13446
2802	909	500	500	127458	-13446
2803	909	500	500	127458	-13386
2804	909	500	500	127518	-13386
2805	910	500	500	127518	-13386
2806	910	500	500	127518	-13327
2807	910	500	500	127580	-13327
2808	910	500	500	127580	-13327
2809	908	500	500	127580	-13260
2810	909	500	500	127646	-13260
2811	910	500	500	127646	-13260
2812	909	500	500	127646	-13194
2813	910	500	500	127713	-13194
2814	909	500	500	127713	-13194
2815	910	500	500	127713	-13127
2816	910	500	500	127773	-13127
2817	910	500	500	127773	-13127
2818	908	500	500	127773	-13067
2819	908	500	500	127830	-13067
2820	909	500	500	127830	-13067
2821	908	500	500	127830	-13011
2822	909	500	500	127892	-13011
2823	910	500	500	127892	-13011
2824	910	500	500	127892	-12952
2825	910	500	500	127960	-12952
2826	910	500	500	127960	-12952
2827	910	500	500	127960	-12894
2828	910	500	500	128026	-12894
2829	909	500	500	128026	-12894
2830	909	500	500	128026	-12829
2831	910	500	500	128091	-12829
2832	909	500	500	128091	-12829
2833	909	500	500	128091	-12773
2834	909	500	500	128148	-12773
2835	910	500	500	128148	-12773
2836	909	500	500	128148	-12719
2837	909	500	500	128210	-12719
2838	910	500	500	128210	-12719
2839	909	500	500	128210	-12663
2840	910	500	500	128276	-12663
2841	910	500	500	128276	-12663
2842	909	500	500	128276	-12602
2843	909	500	500	128341	-12602
2844	909	500	500	128341	-12602
2845	908	500	500	128341	-12534
2846	910	500	500	128406	-12534
2847	910	500	500	128406	-12534
2848	909	500	500	128406	-12467
2849	910	500	500	128465	-12467
2850	910	500	500	128465	-12467
2851	909	500	500	128465	-12401
2852	910	500	500	128521	-12401
2853	909	500	500	128521	-12401
2854	909	500	500	128521	-12339
2855	909	500	500	128580	-12339
2856	909	500	500	128580	-12339
2857	908	500	500	128580	-12271
2858	910	500	500	128643	-12271
2859	909	500	500	128643	-12271
2860	909	500	500	128643	-12203
2861	910	500	500	128704	-12203
2862	910	500	500	128704	-12203
2863	908	500	500	128704	-12136
2864	910	500	500	128765	-12136
2865	910	500	500	128765	-12136
2866	909	500	500	128765	-12072
2867	909	500	500	128816	-12072
2868	909	500	500	128816	-12072
2869	909	500	500	128816	-12013
2870	910	500	500	128870	-12013
2871	909	500	500	128870	-12013
2872	909	500	500	128870	-11955
2873	909	500	500	128931	-11955
2874	908	500	500	128931	-11955
2875	909	500	500	128931	-11894
2876	909	500	500	128994	-11894
2877	910	500	500	128994	-11894
2878	910	500	500	128994	-11832
2879	909	500	500	129059	-11832
2880	909	500	500	129059	-11832
2881	910	500	500	129059	-11771
2882	909	500	500	129118	-11771
2883	910	500	500	129118	-11771
2884	910	500	500	129118	-11714
2885	909	500	500	129171	-11714
2886	909	500	500	129171	-11714
2887	909	500	500	129171	-11662
2888	909	500	500	129226	-11662
2889	910	500	500	129226	-11662
2890	910	500	500	129226	-11600
2891	909	500	500	129292	-11600
2892	910	500	500	129292	-11600
2893	909	500	500	129292	-11538
2894	910	500	500	129292	-11538
2895	910	500	500	129356	-11538
2896	909	500	500	129356	-11473
2897	910	500	500	129356	-11473
2898	910	500	500	129420	-11473
2899	909	500	500	129420	-11473
2900	909	500	500	129420	-11412
2901	909	500	500	129476	-11412
2902	909	500	500	129476	-11412
2903	910	500	500	129476	-11357
2904	909	500	500	129528	-11357
2905	909	500	500	129528	-11357
2906	909	500	500	129528	-11303
2907	909	500	500	129586	-11303
2908	910	500	500	129586	-11303
2909	909	500	500	129586	-11245
2910	909	500	500	129644	-11245
2911	910	500	500	129644	-11245
2912	909	500	500	129644	-11178
2913	909	500	500	129707	-11178
2914	910	500	500	129707	-11178
2915	909	500	500	129707	-11116
2916	909	500	500	129764	-11116
2917	910	500	500	129764	-11116
2918	910	500	500	129764	-11054
2919	910	500	500	129817	-11054
2920	910	500	500	129817	-11054
2921	910	500	500	129817	-11002
2922	910	500	500	129866	-11002
2923	910	500	500	129866	-11002
2924	910	500	500	129866	-10947
2925	910	500	500	129922	-10947
2926	910	500	500	129922	-10947
2927	910	500	500	129922	-10892
2928	910	500	500	129985	-10892
2929	910	500	500	129985	-10892
2930	909	500	500	129985	-10837
2931	910	500	500	130047	-10837
2932	910	500	500	130047	-10837
2933	909	500	500	130047	-10776
2934	910	500	500	130109	-10776
2935	910	500	500	130109	-10776
2936	909	500	500	130109	-10724
2937	910	500	500	130162	-10724
2938	910	500	500	130162	-10724
2939	910	500	500	130162	-10675
2940	910	500	500	130215	-10675
2941	910	500	500	130215	-10675
2942	909	500	500	130215	-10623
2943	910	500	500	130274	-10623
2944	910	500	500	130274	-10623
2945	909	500	500	130274	-10566
2946	910	500	500	130336	-10566
2947	910	500	500	130336	-10566
2948	909	500	500	130336	-10503
2949	910	500	500	130395	-10503
2950	910	500	500	130395	-10503
2951	910	500	500	130395	-10440
2952	910	500	500	130454	-10440
2953	910	500	500	130454	-10440
2954	909	500	500	130454	-10379
2955	910	500	500	130507	-10379
2956	909	500	500	130507	-10379
2957	909	500	500	130507	-10326
2958	909	500	500	130556	-10326
2959	909	500	500	130556	-10326
2960	909	500	500	130556	-10270
2961	910	500	500	130607	-10270
2962	910	500	500	130607	-10270
2963	908	500	500	130607	-10210
2964	910	500	500	130663	-10210
2965	910	500	500	130663	-10210
2966	909	500	500	130663	-10149
2967	909	500	500	130719	-10149
2968	909	500	500	130719	-10149
2969	910	500	500	130719	-10088
2970	909	500	500	130773	-10088
2971	910	500	500	130773	-10088
2972	909	500	500	130773	-10029
2973	909	500	500	130826	-10029
2974	909	500	500	130826	-10029
2975	909	500	500	130826	-9978
2976	908	500	500	130872	-9978
2977	913	500	500	130872	-9978
2978	912	500	500	130872	-9926
2979	913	500	500	130925	-9926
2980	912	500	500	130925	-9926
2981	912	500	500	130925	-9872
2982	913	500	500	130984	-9872
2983	913	500	500	130984	-9872
2984	913	500	500	130984	-9815
2985	914	500	500	131042	-9815
2986	913	500	500	131042	-9815
2987	913	500	500	131042	-9763
2988	912	500	500	131102	-9763
2989	913	500	500	131102	-9763
2990	913	500	500	131102	-9710
2991	913	500	500	131158	-9710
2992	913	500	500	131158	-9710
2993	913	500	500	131158	-9663
2994	913	500	500	131206	-9663
2995	915	500	500	131206	-9663
2996	913	500	500	131206	-9619
2997	913	500	500	131254	-9619
2998	914	500	500	131254	-9619
2999	914	500	500	131254	-9566
3000	914	500	500	131308	-9566
3001	914	500	500	131308	-9566
3002	914	500	500	131308	-9512
3003	913	500	500	131370	-9512
3004	914	500	500	131370	-9512
3005	912	500	500	131370	-9454
3006	913	500	500	131424	-9454
3007	913	500	500	131424	-9454
3008	914	500	500	131424	-9395
3009	913	500	500	131478	-9395
3010	913	500	500	131478	-9395
3011	914	500	500	131478	-9342
3012	914	500	500	131478	-9342
3013	913	500	500	131524	-9342
3014	912	500	500	131524	-9294
3015	913	500	500	131524	-9294
3016	913	500	500	131569	-9294
3017	913	500	500	131569	-9294
3018	913	500	500	131569	-9244
3019	914	500	500	131620	-9244
3020	912	500	500	131620	-9244
3021	913	500	500	131620	-9192
3022	913	500	500	131673	-9192
3023	914	500	500	131673	-9192
3024	913	500	500	131673	-9131
3025	914	500	500	131727	-9131
3026	914	500	500	131727	-9131
3027	912	500	500	131727	-9077
3028	913	500	500	131783	-9077
3029	914	500	500	131783	-9077
3030	914	500	500	131783	-9024
3031	913	500	500	131835	-9024
3032	914	500	500	131835	-9024
3033	914	500	500	131835	-8979
3034	913	500	500	131883	-8979
3035	912	500	500	131883	-8979
3036	913	500	500	131883	-8938
3037	913	500	500	131928	-8938
3038	914	500	500	131928	-8938
3039	913	500	500	131928	-8892
3040	914	500	500	131979	-8892
3041	913	500	500	131979	-8892
3042	912	500	500	131979	-8845
3043	914	500	500	132036	-8845
3044	914	500	500	132036	-8845
3045	913	500	500	132036	-8799
3046	914	500	500	132091	-8799
3047	914	500	500	132091	-8799
3048	912	500	500	132091	-8746
3049	913	500	500	132147	-8746
3050	914	500	500	132147	-8746
3051	915	500	500	132147	-8697
3052	912	500	500	132196	-8697
3053	912	500	500	132196	-8697
3054	914	500	500	132196	-8656
3055	913	500	500	132240	-8656
3056	913	500	500	132240	-8656
3057	913	500	500	132240	-8617
3058	913	500	500	132290	-8617
3059	913	500	500	132290	-8617
3060	914	500	500	132290	-8573
3061	914	500	500	132345	-8573
3062	914	500	500	132345	-8573
3063	912	500	500	132345	-8520
3064	913	500	500	132401	-8520
3065	914	500	500	132401	-8520
3066	914	500	500	132401	-8460
3067	914	500	500	132457	-8460
3068	912	500	500	132457	-8460
3069	914	500	500	132457	-8404
3070	913	500	500	132511	-8404
3071	914	500	500	132511	-8404
3072	914	500	500	132511	-8346
3073	913	500	500	132557	-8346
3074	913	500	500	132557	-8346
3075	912	500	500	132557	-8298
3076	913	500	500	132598	-8298
3077	914	500	500	132598	-8298
3078	912	500	500	132598	-8252
3079	913	500	500	132644	-8252
3080	914	500	500	132644	-8252
3081	914	500	500	132644	-8199
3082	913	500	500	132693	-8199
3083	913	500	500	132693	-8199
3084	914	500	500	132693	-8143
3085	914	500	500	132744	-8143
3086	913	500	500	132744	-8143
3087	913	500	500	132744	-8085
3088	915	500	500	132790	-8085
3089	913	500	500	132790	-8085
3090	913	500	500	132790	-8028
3091	914	500	500	132837	-8028
3092	913	500	500	132837	-8028
3093	913	500	500	132837	-7975
3094	914	500	500	132880	-7975
3095	914	500	500	132880	-7975
3096	913	500	500	132880	-7930
3097	914	500	500	132919	-7930
3098	912	500	500	132919	-7930
3099	913	500	500	132919	-7884
3100	914	500	500	132962	-7884
3101	912	500	500	132962	-7884
3102	913	500	500	132962	-7834
3103	914	500	500	133012	-7834
3104	912	500	500	133012	-7834
3105	913	500	500	133012	-7782
3106	914	500	500	133064	-7782
3107	912	500	500	133064	-7782
3108	913	500	500	133064	-7732
3109	913	500	500	133119	-7732
3110	913	500	500	133119	-7732
3111	912	500	500	133119	-7682
3112	913	500	500	133174	-7682
3113	913	500	500	133174	-7682
3114	912	500	500	133174	-7635
3115	912	500	500	133223	-7635
3116	913	500	500	133223	-7635
3117	913	500	500	133223	-7597
3118	913	500	500	133265	-7597
3119	913	500	500	133265	-7597
3120	913	500	500	133265	-7554
3121	912	500	500	133309	-7554
3122	913	500	500	133309	-7554
3123	913	500	500	133309	-7500
3124	913	500	500	133357	-7500
3125	913	500	500	133357	-7500
3126	913	500	500	133357	-7445
3127	914	500	500	133415	-7445
3128	913	500	500	133415	-7445
3129	913	500	500	133415	-7385
3130	913	500	500	133415	-7385
3131	913	500	500	133465	-7385
3132	914	500	500	133465	-7329
3133	914	500	500	133465	-7329
3134	913	500	500	133514	-7329
3135	912	500	500	133514	-7329
3136	912	500	500	133514	-7281
3137	913	500	500	133559	-7281
3138	913	500	500	133559	-7281
3139	912	500	500	133559	-7237
3140	913	500	500	133597	-7237
3141	912	500	500	133597	-7237
3142	913	500	500	133597	-7189
3143	914	500	500	133639	-7189
3144	914	500	500	133639	-7189
3145	913	500	500	133639	-7138
3146	914	500	500	133684	-7138
3147	913	500	500	133684	-7138
3148	913	500	500	133684	-7078
3149	914	500	500	133731	-7078
3150	914	500	500	133731	-7078
3151	914	500	500	133731	-7023
3152	914	500	500	133782	-7023
3153	914	500	500	133782	-7023
3154	914	500	500	133782	-6970
3155	914	500	500	133830	-6970
3156	914	500	500	133830	-6970
3157	914	500	500	133830	-6927
3158	914	500	500	133873	-6927
3159	913	500	500	133873	-6927
3160	913	500	500	133873	-6886
3161	914	500	500	133912	-6886
3162	914	500	500	133912	-6886
3163	914	500	500	133912	-6840
3164	914	500	500	133948	-6840
3165	914	500	500	133948	-6840
3166	914	500	500	133948	-6792
3167	914	500	500	133988	-6792
3168	914	500	500	133988	-6792
3169	914	500	500	133988	-6741
3170	913	500	500	134035	-6741
3171	914	500	500	134035	-6741
3172	914	500	500	134035	-6686
3173	913	500	500	134089	-6686
3174	913	500	500	134089	-6686
3175	913	500	500	134089	-6639
3176	914	500	500	134139	-6639
3177	914	500	500	134139	-6639
3178	912	500	500	134139	-6598
3179	913	500	500	134192	-6598
3180	914	500	500	134192	-6598
3181	912	500	500	134192	-6558
3182	913	500	500	134237	-6558
3183	914	500	500	134237	-6558
3184	914	500	500	134237	-6512
3185	913	500	500	134276	-6512
3186	913	500	500	134276	-6512
3187	912	500	500	134276	-6461
3188	914	500	500	134321	-6461
3189	913	500	500	134321	-6461
3190	912	500	500	134321	-6404
3191	913	500	500	134370	-6404
3192	914	500	500	134370	-6404
3193	912	500	500	134370	-6349
3194	914	500	500	134424	-6349
3195	914	500	500	134424	-6349
3196	914	500	500	134424	-6295
3197	912	500	500	134475	-6295
3198	913	500	500	134475	-6295
3199	914	500	500	134475	-6249
3200	914	500	500	134525	-6249
3201	913	500	500	134525	-6249
3202	914	500	500	134525	-6205
3203	914	500	500	134572	-6205
3204	913	500	500	134572	-6205
3205	913	500	500	134572	-6153
3206	914	500	500	134612	-6153
3207	913	500	500	134612	-6153
3208	914	500	500	134612	-6096
3209	913	500	500	134650	-6096
3210	913	500	500	134650	-6096
3211	912	500	500	134650	-6038
3212	914	500	500	134692	-6038
3213	913	500	500	134692	-6038
3214	913	500	500	134692	-5983
3215	913	500	500	134737	-5983
3216	914	500	500	134737	-5983
3217	914	500	500	134737	-5931
3218	912	500	500	134785	-5931
3219	912	500	500	134785	-5931
3220	914	500	500	134785	-5884
3221	913	500	500	134831	-5884
3222	913	500	500	134831	-5884
3223	913	500	500	134831	-5839
3224	914	500	500	134876	-5839
3225	913	500	500	134876	-5839
3226	913	500	500	134876	-5793
3227	914	500	500	134917	-5793
3228	913	500	500	134917	-5793
3229	914	500	500	134917	-5742
3230	913	500	500	134953	-5742
3231	914	500	500	134953	-5742
3232	913	500	500	134953	-5692
3233	913	500	500	134989	-5692
3234	914	500	500	134989	-5692
3235	912	500	500	134989	-5647
3236	913	500	500	135035	-5647
3237	914	500	500	135035	-5647
3238	914	500	500	135035	-5603
3239	912	500	500	135086	-5603
3240	914	500	500	135086	-5603
3241	914	500	500	135086	-5567
3242	913	500	500	135137	-5567
3243	913	500	500	135137	-5567
3244	913	500	500	135137	-5530
3245	914	500	500	135186	-5530
3246	913	500	500	135186	-5530
3247	913	500	500	135186	-5486
3248	914	500	500	135186	-5486
3249	912	500	500	135231	-5486
3250	914	500	500	135231	-5435
3251	913	500	500	135231	-5435
3252	914	500	500	135273	-5435
3253	913	500	500	135273	-5435
3254	912	500	500	135273	-5385
3255	914	500	500	135305	-5385
3256	914	500	500	135305	-5385
3257	912	500	500	135305	-5332
3258	913	500	500	135341	-5332
3259	913	500	500	135341	-5332
3260	913	500	500	135341	-5283
3261	913	500	500	135380	-5283
3262	913	500	500	135380	-5283
3263	914	500	500	135380	-5240
3264	913	500	500	135427	-5240
3265	913	500	500	135427	-5240
3266	913	500	500	135427	-5200
3267	912	500	500	135478	-5200
3268	914	500	500	135478	-5200
3269	913	500	500	135478	-5159
3270	913	500	500	135524	-5159
3271	913	500	500	135524	-5159
3272	914	500	500	135524	-5115
3273	912	500	500	135569	-5115
3274	913	500	500	135569	-5115
3275	914	500	500	135569	-5060
3276	913	500	500	135608	-5060
3277	913	500	500	135608	-5060
3278	913	500	500	135608	-5007
3279	913	500	500	135641	-5007
3280	913	500	500	135641	-5007
3281	914	500	500	135641	-4956
3282	914	500	500	135678	-4956
3283	914	500	500	135678	-4956
3284	913	500	500	135678	-4910
3285	913	500	500	135724	-4910
3286	913	500	500	135724	-4910
3287	914	500	500	135724	-4876
3288	914	500	500	135770	-4876
3289	913	500	500	135770	-4876
3290	913	500	500	135770	-4841
3291	914	500	500	135816	-4841
3292	913	500	500	135816	-4841
3293	913	500	500	135816	-4802
3294	913	500	500	135864	-4802
3295	913	500	500	135864	-4802
3296	913	500	500	135864	-4758
3297	913	500	500	135908	-4758
3298	912	500	500	135908	-4758
3299	912	500	500	135908	-4716
3300	913	500	500	135946	-4716
3301	912	500	500	135946	-4716
3302	913	500	500	135946	-4670
3303	913	500	500	135974	-4670
3304	912	500	500	135974	-4670
3305	913	500	500	135974	-4624
3306	914	500	500	136003	-4624
3307	913	500	500	136003	-4624
3308	913	500	500	136003	-4583
3309	913	500	500	136040	-4583
3310	913	500	500	136040	-4583
3311	913	500	500	136040	-4548
3312	913	500	500	136084	-4548
3313	913	500	500	136084	-4548
3314	913	500	500	136084	-4512
3315	913	500	500	136132	-4512
3316	913	500	500	136132	-4512
3317	912	500	500	136132	-4472
3318	912	500	500	136179	-4472
3319	913	500	500	136179	-4472
3320	912	500	500	136179	-4425
3321	912	500	500	136226	-4425
3322	912	500	500	136226	-4425
3323	912	500	500	136226	-4372
3324	912	500	500	136266	-4372
3325	912	500	500	136266	-4372
3326	913	500	500	136266	-4320
3327	912	500	500	136297	-4320
3328	913	500	500	136297	-4320
3329	913	500	500	136297	-4270
3330	913	500	500	136327	-4270
3331	913	500	500	136327	-4270
3332	913	500	500	136327	-4226
3333	914	500	500	136365	-4226
3334	913	500	500	136365	-4226
3335	913	500	500	136365	-4190
3336	914	500	500	136407	-4190
3337	913	500	500	136407	-4190
3338	913	500	500	136407	-4152
3339	913	500	500	136452	-4152
3340	913	500	500	136452	-4152
3341	912	500	500	136452	-4105
3342	912	500	500	136497	-4105
3343	913	500	500	136497	-4105
3344	912	500	500	136497	-4056
3345	913	500	500	136543	-4056
3346	914	500	500	136543	-4056
3347	912	500	500	136543	-4007
3348	914	500	500	136587	-4007
3349	914	500	500	136587	-4007
3350	913	500	500	136587	-3957
3351	913	500	500	136627	-3957
3352	913	500	500	136627	-3957
3353	914	500	500	136627	-3909
3354	913	500	500	136658	-3909
3355	913	500	500	136658	-3909
3356	914	500	500	136658	-3869
3357	914	500	500	136689	-3869
3358	912	500	500	136689	-3869
3359	913	500	500	136689	-3838
3360	914	500	500	136689	-3838
3361	913	500	500	136726	-3838
3362	913	500	500	136726	-3806
3363	914	500	500	136726	-3806
3364	912	500	500	136765	-3806
3365	914	500	500	136765	-3806
3366	914	500	500	136765	-3771
3367	914	500	500	136811	-3771
3368	913	500	500	136811	-3771
3369	913	500	500	136811	-3733
3370	914	500	500	136855	-3733
3371	913	500	500	136855	-3733
3372	913	500	500	136855	-3692
3373	914	500	500	136895	-3692
3374	914	500	500	136895	-3692
3375	913	500	500	136895	-3652
3376	913	500	500	136935	-3652
3377	914	500	500	136935	-3652
3378	913	500	500	136935	-3610
3379	912	500	500	136968	-3610
3380	912	500	500	136968	-3610
3381	913	500	500	136968	-3572
3382	913	500	500	136998	-3572
3383	913	500	500	136998	-3572
3384	913	500	500	136998	-3536
3385	913	500	500	137029	-3536
3386	913	500	500	137029	-3536
3387	914	500	500	137029	-3507
3388	914	500	500	137069	-3507
3389	913	500	500	137069	-3507
3390	913	500	500	137069	-3474
3391	913	500	500	137110	-3474
3392	914	500	500	137110	-3474
3393	912	500	500	137110	-3430
3394	914	500	500	137151	-3430
3395	914	500	500	137151	-3430
3396	914	500	500	137151	-3384
3397	913	500	500	137196	-3384
3398	913	500	500	137196	-3384
3399	914	500	500	137196	-3339
3400	913	500	500	137241	-3339
3401	913	500	500	137241	-3339
3402	914	500	500	137241	-3289
3403	914	500	500	137281	-3289
3404	913	500	500	137281	-3289
3405	912	500	500	137281	-3243
3406	914	500	500	137316	-3243
3407	913	500	500	137316	-3243
3408	914	500	500	137316	-3207
3409	913	500	500	137343	-3207
3410	914	500	500	137343	-3207
3411	912	500	500	137343	-3177
3412	913	500	500	137376	-3177
3413	914	500	500	137376	-3177
3414	913	500	500	137376	-3147
3415	914	500	500	137411	-3147
3416	914	500	500	137411	-3147
3417	914	500	500	137411	-3112
3418	912	500	500	137454	-3112
3419	914	500	500	137454	-3112
3420	914	500	500	137454	-3075
3421	913	500	500	137503	-3075
3422	913	500	500	137503	-3075
3423	914	500	500	137503	-3033
3424	913	500	500	137545	-3033
3425	913	500	500	137545	-3033
3426	914	500	500	137545	-2985
3427	914	500	500	137583	-2985
3428	913	500	500	137583	-2985
3429	914	500	500	137583	-2942
3430	914	500	500	137618	-2942
3431	914	500	500	137618	-2942
3432	914	500	500	137618	-2900
3433	913	500	500	137646	-2900
3434	913	500	500	137646	-2900
3435	914	500	500	137646	-2861
3436	913	500	500	137663	-2861
3437	914	500	500	137663	-2861
3438	913	500	500	137663	-2832
3439	914	500	500	137683	-2832
3440	914	500	500	137683	-2832
3441	914	500	500	137683	-2804
3442	914	500	500	137702	-2804
3443	914	500	500	137702	-2804
3444	913	500	500	137702	-2772
3445	912	500	500	137724	-2772
3446	912	500	500	137724	-2772
3447	914	500	500	137724	-2735
3448	914	500	500	137753	-2735
3449	913	500	500	137753	-2735
3450	913	500	500	137753	-2699
3451	914	500	500	137784	-2699
3452	914	500	500	137784	-2699
3453	914	500	500	137784	-2660
3454	913	500	500	137818	-2660
3455	913	500	500	137818	-2660
3456	912	500	500	137818	-2617
3457	913	500	500	137851	-2617
3458	914	500	500	137851	-2617
3459	913	500	500	137851	-2577
3460	913	500	500	137887	-2577
3461	914	500	500	137887	-2577
3462	914	500	500	137887	-2546
3463	914	500	500	137922	-2546
3464	914	500	500	137922	-2546
3465	912	500	500	137922	-2519
3466	913	500	500	137954	-2519
3467	913	500	500	137954	-2519
3468	913	500	500	137954	-2497
3469	913	500	500	137981	-2497
3470	913	500	500	137981	-2497
3471	914	500	500	137981	-2472
3472	914	500	500	138003	-2472
3473	915	500	500	138003	-2472
3474	912	500	500	138003	-2441
3475	912	500	500	138020	-2441
3476	912	500	500	138020	-2441
3477	913	500	500	138020	-2407
3478	913	500	500	138020	-2407
3479	913	500	500	138043	-2407
3480	914	500	500	138043	-2407
3481	915	500	500	138043	-2369
3482	914	500	500	138073	-2369
3483	914	500	500	138073	-2327
3484	913	500	500	138073	-2327
3485	913	500	500	138109	-2327
3486	913	500	500	138109	-2283
3487	914	500	500	138109	-2283
3488	914	500	500	138154	-2283
3489	914	500	500	138154	-2283
3490	914	500	500	138154	-2241
3491	912	500	500	138195	-2241
3492	912	500	500	138195	-2241
3493	912	500	500	138195	-2200
3494	913	500	500	138234	-2200
3495	914	500	500	138234	-2200
3496	913	500	500	138234	-2167
3497	913	500	500	138274	-2167
3498	914	500	500	138274	-2167
3499	914	500	500	138274	-2138
3500	914	500	500	138311	-2138
3501	913	500	500	138311	-2138
3502	913	500	500	138311	-2105
3503	913	500	500	138337	-2105
3504	913	500	500	138337	-2105
3505	913	500	500	138337	-2067
3506	914	500	500	138358	-2067
3507	914	500	500	138358	-2067
3508	914	500	500	138358	-2024
3509	913	500	500	138384	-2024
3510	912	500	500	138384	-2024
3511	914	500	500	138384	-1978
3512	913	500	500	138413	-1978
3513	913	500	500	138413	-1978
3514	914	500	500	138413	-1934
3515	914	500	500	138445	-1934
3516	914	500	500	138445	-1934
3517	913	500	500	138445	-1891
3518	913	500	500	138482	-1891
3519	914	500	500	138482	-1891
3520	912	500	500	138482	-1854
3521	912	500	500	138521	-1854
3522	913	500	500	138521	-1854
3523	913	500	500	138521	-1822
3524	913	500	500	138559	-1822
3525	913	500	500	138559	-1822
3526	913	500	500	138559	-1798
3527	914	500	500	138595	-1798
3528	913	500	500	138595	-1798
3529	913	500	500	138595	-1772
3530	913	500	500	138629	-1772
3531	913	500	500	138629	-1772
3532	914	500	500	138629	-1745
3533	914	500	500	138660	-1745
3534	914	500	500	138660	-1745
3535	914	500	500	138660	-1715
3536	913	500	500	138683	-1715
3537	913	500	500	138683	-1715
3538	914	500	500	138683	-1684
3539	913	500	500	138699	-1684
3540	914	500	500	138699	-1684
3541	915	500	500	138699	-1649
3542	913	500	500	138717	-1649
3543	914	500	500	138717	-1649
3544	914	500	500	138717	-1614
3545	912	500	500	138742	-1614
3546	913	500	500	138742	-1614
3547	914	500	500	138742	-1580
3548	913	500	500	138770	-1580
3549	914	500	500	138770	-1580
3550	913	500	500	138770	-1545
3551	913	500	500	138805	-1545
3552	913	500	500	138805	-1545
3553	912	500	500	138805	-1514
3554	912	500	500	138843	-1514
3555	914	500	500	138843	-1514
3556	914	500	500	138843	-1492
3557	914	500	500	138880	-1492
3558	914	500	500	138880	-1492
3559	913	500	500	138880	-1476
3560	913	500	500	138916	-1476
3561	914	500	500	138916	-1476
3562	913	500	500	138916	-1460
3563	913	500	500	138949	-1460
3564	914	500	500	138949	-1460
3565	913	500	500	138949	-1439
3566	914	500	500	138985	-1439
3567	913	500	500	138985	-1439
3568	913	500	500	138985	-1414
3569	914	500	500	139012	-1414
3570	912	500	500	139012	-1414
3571	912	500	500	139012	-1381
3572	914	500	500	139034	-1381
3573	912	500	500	139034	-1381
3574	913	500	500	139034	-1346
3575	914	500	500	139055	-1346
3576	913	500	500	139055	-1346
3577	912	500	500	139055	-1311
3578	914	500	500	139082	-1311
3579	913	500	500	139082	-1311
3580	914	500	500	139082	-1275
3581	914	500	500	139114	-1275
3582	913	500	500	139114	-1275
3583	913	500	500	139114	-1237
3584	914	500	500	139150	-1237
3585	913	500	500	139150	-1237
3586	914	500	500	139150	-1201
3587	914	500	500	139191	-1201
3588	913	500	500	139191	-1201
3589	914	500	500	139191	-1171
3590	912	500	500	139232	-1171
3591	913	500	500	139232	-1171
3592	913	500	500	139232	-1147
3593	913	500	500	139271	-1147
3594	913	500	500	139271	-1147
3595	913	500	500	139271	-1127
3596	914	500	500	139308	-1127
3597	912	500	500	139308	-1127
3598	913	500	500	139308	-1105
3599	914	500	500	139338	-1105
3600	914	500	500	139338	-1105
3601	914	500	500	139338	-1078
3602	914	500	500	139338	-1078
3603	913	500	500	139364	-1078
3604	913	500	500	139364	-1046
3605	913	500	500	139364	-1046
3606	913	500	500	139383	-1046
3607	913	500	500	139383	-1046
3608	913	500	500	139383	-1011
3609	913	500	500	139405	-1011
3610	913	500	500	139405	-1011
3611	914	500	500	139405	-969
3612	914	500	500	139434	-969
3613	914	500	500	139434	-969
3614	914	500	500	139434	-927
3615	913	500	500	139463	-927
3616	912	500	500	139463	-927
3617	913	500	500	139463	-887
3618	913	500	500	139500	-887
3619	913	500	500	139500	-887
3620	913	500	500	139500	-849
3621	914	500	500	139541	-849
3622	914	500	500	139541	-849
3623	913	500	500	139541	-817
3624	914	500	500	139578	-817
3625	914	500	500	139578	-817
3626	913	500	500	139578	-796
3627	913	500	500	139613	-796
3628	913	500	500	139613	-796
3629	912	500	500	139613	-782
3630	913	500	500	139645	-782
3631	912	500	500	139645	-782
3632	914	500	500	139645	-765
3633	914	500	500	139677	-765
3634	914	500	500	139677	-765
3635	914	500	500	139677	-747
3636	913	500	500	139700	-747
3637	913	500	500	139700	-747
3638	913	500	500	139700	-723
3639	914	500	500	139717	-723
3640	913	500	500	139717	-723
3641	913	500	500	139717	-692
3642	913	500	500	139733	-692
3643	913	500	500	139733	-692
3644	914	500	500	139733	-660
3645	914	500	500	139752	-660
3646	914	500	500	139752	-660
3647	913	500	500	139752	-631
3648	913	500	500	139776	-631
3649	914	500	500	139776	-631
3650	913	500	500	139776	-601
3651	912	500	500	139804	-601
3652	913	500	500	139804	-601
3653	914	500	500	139804	-568
3654	914	500	500	139835	-568
3655	914	500	500	139835	-568
3656	913	500	500	139835	-535
3657	913	500	500	139869	-535
3658	913	500	500	139869	-535
3659	914	500	500	139869	-509
3660	914	500	500	139903	-509
3661	914	500	500	139903	-509
3662	913	500	500	139903	-489
3663	913	500	500	139939	-489
3664	914	500	500	139939	-489
3665	914	500	500	139939	-470
3666	914	500	500	139971	-470
3667	914	500	500	139971	-470
3668	913	500	500	139971	-455
3669	912	500	500	140000	-455
3670	914	500	500	140000	-455
3671	913	500	500	140000	-440
3672	914	500	500	140023	-440
3673	914	500	500	140023	-440
3674	914	500	500	140023	-415
3675	914	500	500	140043	-415
3676	914	500	500	140043	-415
3677	913	500	500	140043	-389
3678	914	500	500	140058	-389
3679	912	500	500	140058	-389
3680	914	500	500	140058	-356
3681	914	500	500	140072	-356
3682	912	500	500	140072	-356
3683	914	500	500	140072	-320
3684	913	500	500	140093	-320
3685	913	500	500	140093	-320
3686	913	500	500	140093	-278
3687	914	500	500	140119	-278
3688	914	500	500	140119	-278
3689	913	500	500	140119	-235
3690	913	500	500	140146	-235
3691	914	500	500	140146	-235
3692	913	500	500	140146	-194
3693	913	500	500	140177	-194
3694	914	500	500	140177	-194
3695	913	500	500	140177	-155
3696	913	500	500	140211	-155
3697	913	500	500	140211	-155
3698	913	500	500	140211	-124
3699	913	500	500	140245	-124
3700	914	500	500	140245	-124
3701	914	500	500	140245	-101
3702	914	500	500	140276	-101
3703	913	500	500	140276	-101
3704	914	500	500	140276	-73
3705	913	500	500	140307	-73
3706	914	500	500	140307	-73
3707	912	500	500	140307	-38
3708	913	500	500	140335	-38
3709	914	500	500	140335	-38
3710	913	500	500	140335	0
3711	914	500	500	140359	0
3712	914	500	500	140359	0
3713	913	500	500	140359	39
3714	913	500	500	140374	39
3715	914	500	500	140374	39
3716	913	500	500	140374	78
3717	914	500	500	140387	78
3718	912	500	500	140387	78
3719	913	500	500	140387	118
3720	913	500	500	140387	118
3721	912	500	500	140398	118
3722	913	500	500	140398	155
3723	914	500	500	140398	155
3724	912	500	500	140413	155
3725	913	500	500	140413	155
3726	914	500	500	140413	190
3727	914	500	500	140429	190
3728	913	500	500	140429	190
3729	913	500	500	140429	221
3730	914	500	500	140447	221
3731	913	500	500	140447	221
3732	914	500	500	140447	244
3733	914	500	500	140471	244
3734	913	500	500	140471	244
3735	914	500	500	140471	266
3736	914	500	500	140501	266
3737	913	500	500	140501	266
3738	914	500	500	140501	291
3739	914	500	500	140534	291
3740	913	500	500	140534	291
3741	914	500	500	140534	316
3742	912	500	500	140570	316
3743	913	500	500	140570	316
3744	914	500	500	140570	346
3745	912	500	500	140604	346
3746	912	500	500	140604	346
3747	914	500	500	140604	378
3748	912	500	500	140636	378
3749	913	500	500	140636	378
3750	914	500	500	140636	415
3751	912	500	500	140665	415
3752	913	500	500	140665	415
3753	913	500	500	140665	451
3754	912	500	500	140692	451
3755	913	500	500	140692	451
3756	913	500	500	140692	484
3757	913	500	500	140717	484
3758	914	500	500	140717	484
3759	914	500	500	140717	513
3760	912	500	500	140737	513
3761	913	500	500	140737	513
3762	913	500	500	140737	540
3763	913	500	500	140752	540
3764	913	500	500	140752	540
3765	913	500	500	140752	560
3766	913	500	500	140771	560
3767	914	500	500	140771	560
3768	914	500	500	140771	576
3769	914	500	500	140789	576
3770	914	500	500	140789	576
3771	913	500	500	140789	596
3772	912	500	500	140810	596
3773	913	500	500	140810	596
3774	913	500	500	140810	624
3775	914	500	500	140834	624
3776	913	500	500	140834	624
3777	913	500	500	140834	657
3778	913	500	500	140859	657
3779	914	500	500	140859	657
3780	913	500	500	140859	693
3781	914	500	500	140889	693
3782	914	500	500	140889	693
3783	913	500	500	140889	728
3784	913	500	500	140921	728
3785	912	500	500	140921	728
3786	913	500	500	140921	763
3787	913	500	500	140952	763
3788	914	500	500	140952	763
3789	913	500	500	140952	803
3790	912	500	500	140976	803
3791	913	500	500	140976	803
3792	914	500	500	140976	841
3793	914	500	500	140998	841
3794	914	500	500	140998	841
3795	913	500	500	140998	874
3796	914	500	500	141020	874
3797	912	500	500	141020	874
3798	913	500	500	141020	898
3799	913	500	500	141040	898
3800	913	500	500	141040	898
3801	913	500	500	141040	917
3802	913	500	500	141053	917
3803	914	500	500	141053	917
3804	914	500	500	141053	938
3805	915	500	500	141061	938
3806	914	500	500	141061	938
3807	914	500	500	141061	965
3808	914	500	500	141069	965
3809	914	500	500	141069	965
3810	913	500	500	141069	996
3811	912	500	500	141079	996
3812	913	500	500	141079	996
3813	913	500	500	141079	1029
3814	913	500	500	141090	1029
3815	914	500	500	141090	1029
3816	913	500	500	141090	1070
3817	913	500	500	141102	1070
3818	913	500	500	141102	1070
3819	914	500	500	141102	1114
3820	914	500	500	141119	1114
3821	914	500	500	141119	1114
3822	914	500	500	141119	1153
3823	912	500	500	141136	1153
3824	913	500	500	141136	1153
3825	912	500	500	141136	1189
3826	913	500	500	141160	1189
3827	913	500	500	141160	1189
3828	913	500	500	141160	1222
3829	914	500	500	141186	1222
3830	914	500	500	141186	1222
3831	914	500	500	141186	1249
3832	912	500	500	141217	1249
3833	912	500	500	141217	1249
3834	912	500	500	141217	1267
3835	914	500	500	141246	1267
3836	913	500	500	141246	1267
3837	913	500	500	141246	1287
3838	914	500	500	141246	1287
3839	913	500	500	141279	1287
3840	914	500	500	141279	1310
3841	914	500	500	141279	1310
3842	913	500	500	141309	1310
3843	913	500	500	141309	1310
3844	914	500	500	141309	1338
3845	913	500	500	141338	1338
3846	913	500	500	141338	1338
3847	914	500	500	141338	1367
3848	914	500	500	141365	1367
3849	914	500	500	141365	1367
3850	914	500	500	141365	1397
3851	914	500	500	141389	1397
3852	913	500	500	141389	1397
3853	913	500	500	141389	1430
3854	914	500	500	141409	1430
3855	914	500	500	141409	1430
3856	914	500	500	141409	1467
3857	914	500	500	141422	1467
3858	913	500	500	141422	1467
3859	913	500	500	141422	1507
3860	914	500	500	141436	1507
3861	912	500	500	141436	1507
3862	913	500	500	141436	1539
3863	914	500	500	141454	1539
3864	913	500	500	141454	1539
3865	912	500	500	141454	1565
3866	914	500	500	141477	1565
3867	913	500	500	141477	1565
3868	913	500	500	141477	1588
3869	914	500	500	141501	1588
3870	913	500	500	141501	1588
3871	913	500	500	141501	1606
3872	914	500	500	141531	1606
3873	913	500	500	141531	1606
3874	913	500	500	141531	1632
3875	914	500	500	141566	1632
3876	913	500	500	141566	1632
3877	912	500	500	141566	1659
3878	914	500	500	141607	1659
3879	913	500	500	141607	1659
3880	914	500	500	141607	1692
3881	914	500	500	141640	1692
3882	913	500	500	141640	1692
3883	913	500	500	141640	1728
3884	914	500	500	141671	1728
3885	913	500	500	141671	1728
3886	914	500	500	141671	1770
3887	913	500	500	141699	1770
3888	914	500	500	141699	1770
3889	912	500	500	141699	1811
3890	914	500	500	141725	1811
3891	913	500	500	141725	1811
3892	913	500	500	141725	1848
3893	913	500	500	141744	1848
3894	913	500	500	141744	1848
3895	912	500	500	141744	1884
3896	913	500	500	141757	1884
3897	914	500	500	141757	1884
3898	913	500	500	141757	1915
3899	913	500	500	141771	1915
3900	913	500	500	141771	1915
3901	913	500	500	141771	1935
3902	913	500	500	141789	1935
3903	913	500	500	141789	1935
3904	913	500	500	141789	1957
3905	912	500	500	141810	1957
3906	913	500	500	141810	1957
3907	913	500	500	141810	1982
3908	914	500	500	141833	1982
3909	914	500	500	141833	1982
3910	912	500	500	141833	2013
3911	914	500	500	141860	2013
3912	914	500	500	141860	2013
3913	913	500	500	141860	2047
3914	913	500	500	141886	2047
3915	913	500	500	141886	2047
3916	914	500	500	141886	2084
3917	913	500	500	141914	2084
3918	913	500	500	141914	2084
3919	914	500	500	141914	2123
3920	914	500	500	141941	2123
3921	913	500	500	141941	2123
3922	913	500	500	141941	2163
3923	914	500	500	141970	2163
3924	914	500	500	141970	2163
3925	913	500	500	141970	2201
3926	912	500	500	141999	2201
3927	913	500	500	141999	2201
3928	914	500	500	141999	2234
3929	914	500	500	142022	2234
3930	913	500	500	142022	2234
3931	913	500	500	142022	2262
3932	914	500	500	142046	2262
3933	914	500	500	142046	2262
3934	912	500	500	142046	2284
3935	913	500	500	142065	2284
3936	914	500	500	142065	2284
3937	914	500	500	142065	2302
3938	914	500	500	142080	2302
3939	913	500	500	142080	2302
3940	914	500	500	142080	2324
3941	914	500	500	142093	2324
3942	914	500	500	142093	2324
3943	914	500	500	142093	2347
3944	914	500	500	142100	2347
3945	914	500	500	142100	2347
3946	913	500	500	142100	2375
3947	913	500	500	142105	2375
3948	913	500	500	142105	2375
3949	913	500	500	142105	2405
3950	912	500	500	142108	2405
3951	913	500	500	142108	2405
3952	913	500	500	142108	2437
3953	913	500	500	142113	2437
3954	914	500	500	142113	2437
3955	913	500	500	142113	2470
3956	913	500	500	142113	2470
3957	914	500	500	142126	2470
3958	914	500	500	142126	2500
3959	914	500	500	142126	2500
3960	914	500	500	142143	2500
3961	914	500	500	142143	2500
3962	912	500	500	142143	2526
3963	914	500	500	142165	2526
3964	913	500	500	142165	2526
3965	913	500	500	142165	2553
3966	914	500	500	142190	2553
3967	914	500	500	142190	2553
3968	913	500	500	142190	2576
3969	914	500	500	142221	2576
3970	913	500	500	142221	2576
3971	913	500	500	142221	2594
3972	914	500	500	142256	2594
3973	914	500	500	142256	2594
3974	913	500	500	142256	2606
3975	914	500	500	142290	2606
3976	913	500	500	142290	2606
3977	913	500	500	142290	2614
3978	914	500	500	142321	2614
3979	914	500	500	142321	2614
3980	913	500	500	142321	2620
3981	914	500	500	142351	2620
3982	913	500	500	142351	2620
3983	912	500	500	142351	2632
3984	914	500	500	142379	2632
3985	913	500	500	142379	2632
3986	913	500	500	142379	2649
3987	913	500	500	142402	2649
3988	914	500	500	142402	2649
3989	912	500	500	142402	2670
3990	913	500	500	142414	2670
3991	912	500	500	142414	2670
3992	913	500	500	142414	2694
3993	913	500	500	142424	2694
3994	912	500	500	142424	2694
3995	913	500	500	142424	2724
3996	913	500	500	142437	2724
3997	913	500	500	142437	2724
3998	913	500	500	142437	2756
3999	913	500	500	142452	2756
4000	913	0	500	142452	2756
4001	913	0	500	142452	2790
4002	914	0	500	142468	2790
4003	912	0	500	142468	2790
4004	914	0	500	142468	2773
4005	914	0	500	142487	2773
4006	914	0	500	142487	2773
