0	0	0	0	0	0
1	0	0	0	0	0
2	0	0	0	0	0
3	656	0	0	0	0
4	658	0	0	0	0
5	658	0	0	48546	0
6	658	0	0	48546	0
7	658	0	0	48546	0
8	658	0	0	48546	0
9	658	0	0	48546	-52146
10	658	400	400	48546	-52146
11	658	400	400	48546	-52146
12	657	400	400	48546	-52146
13	657	400	400	48546	-52146
14	658	400	400	48598	-52146
15	657	400	400	48598	-52087
16	657	400	400	48598	-52087
17	657	400	400	48720	-52087
18	658	400	400	48720	-51954
19	658	400	400	48720	-51954
20	658	400	400	48861	-51954
21	658	400	400	48861	-51799
22	658	400	400	48861	-51799
23	658	400	400	49014	-51799
24	657	400	400	49014	-51625
25	657	400	400	49014	-51625
26	658	400	400	49172	-51625
27	658	400	400	49172	-51447
28	657	400	400	49172	-51447
29	658	400	400	49330	-51447
30	659	400	400	49330	-51269
31	662	400	400	49330	-51269
32	662	400	400	49492	-51269
33	661	400	400	49492	-51087
34	662	400	400	49492	-51087
35	662	400	400	49653	-51087
36	661	400	400	49653	-50905
37	661	400	400	49653	-50905
38	661	400	400	49813	-50905
39	662	400	400	49813	-50725
40	660	400	400	49813	-50725
41	662	400	400	49974	-50725
42	663	400	400	49974	-50544
43	666	400	400	49974	-50544
44	666	400	400	50133	-50544
45	665	400	400	50133	-50361
46	666	400	400	50133	-50361
47	665	400	400	50290	-50361
48	665	400	400	50290	-50184
49	666	400	400	50290	-50184
50	666	400	400	50447	-50184
51	669	400	400	50447	-50001
52	670	400	400	50447	-50001
53	670	400	400	50601	-50001
54	669	400	400	50601	-49818
55	670	400	400	50601	-49818
56	670	400	400	50757	-49818
57	671	400	400	50757	-49641
58	674	400	400	50757	-49641
59	674	400	400	50757	-49641
60	673	400	400	50911	-49458
61	674	400	400	50911	-49458
62	674	400	400	50911	-49458
63	676	400	400	51063	-49278
64	678	400	400	51063	-49278
65	678	400	400	51063	-49278
66	678	400	400	51218	-49099
67	677	400	400	51218	-49099
68	677	400	400	51218	-49099
69	678	400	400	51370	-48924
70	678	400	400	51370	-48924
71	680	400	400	51370	-48924
72	682	400	400	51526	-48743
73	683	400	400	51526	-48743
74	681	400	400	51526	-48743
75	683	400	400	51682	-48569
76	682	400	400	51682	-48569
77	685	400	400	51682	-48569
78	685	400	400	51837	-48397
79	685	400	400	51837	-48397
80	685	400	400	51837	-48397
81	686	400	400	51997	-48225
82	685	400	400	51997	-48225
83	687	400	400	51997	-48225
84	690	400	400	52155	-48057
85	689	400	400	52155	-48057
86	690	400	400	52155	-48057
87	689	400	400	52314	-47891
88	690	400	400	52314	-47891
89	690	400	400	52314	-47891
90	689	400	400	52470	-47730
91	691	400	400	52470	-47730
92	694	400	400	52470	-47730
93	694	400	400	52625	-47571
94	694	400	400	52625	-47571
95	694	400	400	52625	-47571
96	694	400	400	52783	-47415
97	694	400	400	52783	-47415
98	694	400	400	52783	-47415
99	694	400	400	52937	-47261
100	694	400	400	52937	-47261
101	694	400	400	52937	-47261
102	694	400	400	53090	-47115
103	694	400	400	53090	-47115
104	694	400	400	53090	-47115
105	694	400	400	53242	-46973
106	694	400	400	53242	-46973
107	694	400	400	53242	-46973
108	694	400	400	53392	-46833
109	694	400	400	53392	-46833
110	694	400	400	53392	-46833
111	694	400	400	53542	-46695
112	693	400	400	53542	-46695
113	693	400	400	53542	-46695
114	693	400	400	53689	-46563
115	692	400	400	53689	-46563
116	693	400	400	53689	-46563
117	693	400	400	53837	-46433
118	694	400	400	53837	-46433
119	693	400	400	53837	-46433
120	693	400	400	53985	-46303
121	694	400	400	53985	-46303
122	695	400	400	53985	-46303
123	694	400	400	54130	-46174
124	694	400	400	54130	-46174
125	693	400	400	54130	-46174
126	693	400	400	54276	-46048
127	694	400	400	54276	-46048
128	693	400	400	54276	-46048
129	688	400	400	54423	-45918
130	690	400	400	54423	-45918
131	690	400	400	54423	-45918
132	691	400	400	54570	-45918
133	691	400	400	54570	-45790
134	690	400	400	54570	-45790
135	689	400	400	54714	-45790
136	689	400	400	54714	-45664
137	688	400	400	54714	-45664
138	685	400	400	54861	-45664
139	685	400	400	54861	-45537
140	686	400	400	54861	-45537
141	686	400	400	55004	-45537
142	686	400	400	55004	-45408
143	686	400	400	55004	-45408
144	682	400	400	55147	-45408
145	682	400	400	55147	-45278
146	682	400	400	55147	-45278
147	683	400	400	55288	-45278
148	681	400	400	55288	-45148
149	681	400	400	55288	-45148
150	679	400	400	55428	-45148
151	677	400	400	55428	-45016
152	677	400	400	55428	-45016
153	679	400	400	55567	-45016
154	677	400	400	55567	-44886
155	677	400	400	55567	-44886
156	674	400	400	55707	-44886
157	674	400	400	55707	-44752
158	674	400	400	55707	-44752
159	674	400	400	55846	-44752
160	674	400	400	55846	-44620
161	672	400	400	55846	-44620
162	669	400	400	55980	-44620
163	669	400	400	55980	-44488
164	670	400	400	55980	-44488
165	670	400	400	56115	-44488
166	670	400	400	56115	-44356
167	670	400	400	56115	-44356
168	667	400	400	56249	-44356
169	666	400	400	56249	-44223
170	665	400	400	56249	-44223
171	666	400	400	56383	-44223
172	666	400	400	56383	-44092
173	666	400	400	56383	-44092
174	666	400	400	56516	-44092
175	665	400	400	56516	-43959
176	666	400	400	56516	-43959
177	661	400	400	56648	-43959
178	661	400	400	56648	-43827
179	661	400	400	56648	-43827
180	661	400	400	56780	-43827
181	661	400	400	56780	-43694
182	661	400	400	56780	-43694
183	662	400	400	56780	-43694
184	662	400	400	56914	-43564
185	662	400	400	56914	-43564
186	661	400	400	56914	-43564
187	662	400	400	57042	-43433
188	660	400	400	57042	-43433
189	659	400	400	57042	-43433
190	658	400	400	57170	-43302
191	658	400	400	57170	-43302
192	657	400	400	57170	-43302
193	658	400	400	57297	-43175
194	658	400	400	57297	-43175
195	657	400	400	57297	-43175
196	657	400	400	57425	-43048
197	658	400	400	57425	-43048
198	657	400	400	57425	-43048
199	658	400	400	57549	-42922
200	657	400	400	57549	-42922
201	658	400	400	57549	-42922
202	656	400	400	57678	-42799
203	657	400	400	57678	-42799
204	658	400	400	57678	-42799
205	658	400	400	57805	-42674
206	658	400	400	57805	-42674
207	657	400	400	57805	-42674
208	658	400	400	57932	-42553
209	656	400	400	57932	-42553
210	656	400	400	57932	-42553
211	658	400	400	58057	-42434
212	658	400	400	58057	-42434
213	658	400	400	58057	-42434
214	658	400	400	58183	-42316
215	658	400	400	58183	-42316
216	657	400	400	58183	-42316
217	657	400	400	58310	-42201
218	658	400	400	58310	-42201
219	658	400	400	58310	-42201
220	658	400	400	58433	-42086
221	658	400	400	58433	-42086
222	658	400	400	58433	-42086
223	657	400	400	58558	-41975
224	657	400	400	58558	-41975
225	658	400	400	58558	-41975
226	657	400	400	58683	-41858
227	658	400	400	58683	-41858
228	658	400	400	58683	-41858
229	657	400	400	58806	-41744
230	657	400	400	58806	-41744
231	657	400	400	58806	-41744
232	658	400	400	58934	-41630
233	658	400	400	58934	-41630
234	658	400	400	58934	-41630
235	658	400	400	59057	-41522
236	658	400	400	59057	-41522
237	656	400	400	59057	-41522
238	657	400	400	59181	-41413
239	658	400	400	59181	-41413
240	657	400	400	59181	-41413
241	657	400	400	59304	-41303
242	657	400	400	59304	-41303
243	657	400	400	59304	-41303
244	658	400	400	59428	-41191
245	657	400	400	59428	-41191
246	658	400	400	59428	-41191
247	657	400	400	59551	-41079
248	657	400	400	59551	-41079
249	658	400	400	59551	-41079
250	658	400	400	59674	-41079
251	657	400	400	59674	-40967
252	658	400	400	59674	-40967
253	658	400	400	59796	-40967
254	657	400	400	59796	-40856
255	658	400	400	59796	-40856
256	657	400	400	59921	-40856
257	658	400	400	59921	-40747
258	657	400	400	59921	-40747
259	658	400	400	60042	-40747
260	658	400	400	60042	-40636
261	658	400	400	60042	-40636
262	658	400	400	60164	-40636
263	657	400	400	60164	-40527
264	658	400	400	60164	-40527
265	658	400	400	60287	-40527
266	658	400	400	60287	-40420
267	658	400	400	60287	-40420
268	658	400	400	60410	-40420
269	658	400	400	60410	-40315
270	657	400	400	60410	-40315
271	658	400	400	60532	-40315
272	657	400	400	60532	-40207
273	658	400	400	60532	-40207
274	655	400	400	60656	-40207
275	654	400	400	60656	-40099
276	653	400	400	60656	-40099
277	653	400	400	60775	-40099
278	653	400	400	60775	-39993
279	653	400	400	60775	-39993
280	653	400	400	60896	-39993
281	653	400	400	60896	-39888
282	653	400	400	60896	-39888
283	654	400	400	61017	-39888
284	654	400	400	61017	-39783
285	653	400	400	61017	-39783
286	653	400	400	61134	-39783
287	654	400	400	61134	-39680
288	653	400	400	61134	-39680
289	653	400	400	61251	-39680
290	654	400	400	61251	-39576
291	654	400	400	61251	-39576
292	652	400	400	61371	-39576
293	652	400	400	61371	-39478
294	654	400	400	61371	-39478
295	653	400	400	61490	-39478
296	654	400	400	61490	-39376
297	653	400	400	61490	-39376
298	654	400	400	61608	-39376
299	653	400	400	61608	-39273
300	654	400	400	61608	-39273
301	654	400	400	61608	-39273
302	654	400	400	61727	-39167
303	654	400	400	61727	-39167
304	653	400	400	61727	-39167
305	654	400	400	61844	-39063
306	651	400	400	61844	-39063
307	653	400	400	61844	-39063
308	653	400	400	61963	-38962
309	653	400	400	61963	-38962
310	654	400	400	61963	-38962
311	654	400	400	62078	-38858
312	654	400	400	62078	-38858
313	652	400	400	62078	-38858
314	653	400	400	62196	-38757
315	654	400	400	62196	-38757
316	653	400	400	62196	-38757
317	654	400	400	62316	-38653
318	654	400	400	62316	-38653
319	654	400	400	62316	-38653
320	653	400	400	62436	-38547
321	653	400	400	62436	-38547
322	653	400	400	62436	-38547
323	653	400	400	62554	-38445
324	654	400	400	62554	-38445
325	654	400	400	62554	-38445
326	654	400	400	62672	-38343
327	653	400	400	62672	-38343
328	654	400	400	62672	-38343
329	654	400	400	62789	-38244
330	654	400	400	62789	-38244
331	652	400	400	62789	-38244
332	653	400	400	62907	-38144
333	654	400	400	62907	-38144
334	654	400	400	62907	-38144
335	654	400	400	63028	-38040
336	653	400	400	63028	-38040
337	654	400	400	63028	-38040
338	653	400	400	63145	-37939
339	654	400	400	63145	-37939
340	654	400	400	63145	-37939
341	654	400	400	63263	-37835
342	653	400	400	63263	-37835
343	654	400	400	63263	-37835
344	654	400	400	63379	-37733
345	653	400	400	63379	-37733
346	653	400	400	63379	-37733
347	653	400	400	63494	-37631
348	653	400	400	63494	-37631
349	654	400	400	63494	-37631
350	654	400	400	63610	-37528
351	654	400	400	63610	-37528
352	654	400	400	63610	-37528
353	653	400	400	63723	-37431
354	654	400	400	63723	-37431
355	653	400	400	63723	-37431
356	654	400	400	63841	-37332
357	653	400	400	63841	-37332
358	654	400	400	63841	-37332
359	653	400	400	63958	-37230
360	653	400	400	63958	-37230
361	653	400	400	63958	-37230
362	653	400	400	64074	-37127
363	653	400	400	64074	-37127
364	653	400	400	64074	-37127
365	654	400	400	64189	-37024
366	654	400	400	64189	-37024
367	653	400	400	64189	-37024
368	654	400	400	64304	-37024
369	654	400	400	64304	-36924
370	654	400	400	64304	-36924
371	654	400	400	64419	-36924
372	653	400	400	64419	-36820
373	653	400	400	64419	-36820
374	653	400	400	64532	-36820
375	653	400	400	64532	-36719
376	653	400	400	64532	-36719
377	653	400	400	64647	-36719
378	653	400	400	64647	-36617
379	653	400	400	64647	-36617
380	654	400	400	64763	-36617
381	653	400	400	64763	-36516
382	653	400	400	64763	-36516
383	653	400	400	64876	-36516
384	654	400	400	64876	-36418
385	654	400	400	64876	-36418
386	654	400	400	64992	-36418
387	654	400	400	64992	-36320
388	653	400	400	64992	-36320
389	653	400	400	65107	-36320
390	653	400	400	65107	-36225
391	653	400	400	65107	-36225
392	654	400	400	65218	-36225
393	653	400	400	65218	-36123
394	653	400	400	65218	-36123
395	654	400	400	65331	-36123
396	654	400	400	65331	-36023
397	652	400	400	65331	-36023
398	654	400	400	65445	-36023
399	653	400	400	65445	-35925
400	654	400	400	65445	-35925
401	653	400	400	65557	-35925
402	654	400	400	65557	-35831
403	652	400	400	65557	-35831
404	653	400	400	65668	-35831
405	654	400	400	65668	-35730
406	654	400	400	65668	-35730
407	654	400	400	65778	-35730
408	654	400	400	65778	-35633
409	654	400	400	65778	-35633
410	653	400	400	65892	-35633
411	653	400	400	65892	-35537
412	653	400	400	65892	-35537
413	654	400	400	66004	-35537
414	654	400	400	66004	-35442
415	653	400	400	66004	-35442
416	654	400	400	66116	-35442
417	653	400	400	66116	-35344
418	654	400	400	66116	-35344
419	653	400	400	66116	-35344
420	654	400	400	66227	-35249
421	653	400	400	66227	-35249
422	654	400	400	66227	-35249
423	653	400	400	66338	-35152
424	654	400	400	66338	-35152
425	653	400	400	66338	-35152
426	653	400	400	66450	-35053
427	654	400	400	66450	-35053
428	653	400	400	66450	-35053
429	654	400	400	66561	-34954
430	654	400	400	66561	-34954
431	654	400	400	66561	-34954
432	652	400	400	66672	-34858
433	653	400	400	66672	-34858
434	654	400	400	66672	-34858
435	654	400	400	66784	-34760
436	652	400	400	66784	-34760
437	652	400	400	66784	-34760
438	654	400	400	66892	-34663
439	654	400	400	66892	-34663
440	654	400	400	66892	-34663
441	653	400	400	67002	-34566
442	654	400	400	67002	-34566
443	653	400	400	67002	-34566
444	654	400	400	67115	-34468
445	654	400	400	67115	-34468
446	654	400	400	67115	-34468
447	654	400	400	67225	-34374
448	653	400	400	67225	-34374
449	654	400	400	67225	-34374
450	653	400	400	67334	-34280
451	654	400	400	67334	-34280
452	653	400	400	67334	-34280
453	654	400	400	67442	-34189
454	653	400	400	67442	-34189
455	653	400	400	67442	-34189
456	654	400	400	67551	-34093
457	653	400	400	67551	-34093
458	653	400	400	67551	-34093
459	654	400	400	67661	-33997
460	654	400	400	67661	-33997
461	653	400	400	67661	-33997
462	654	400	400	67768	-33903
463	654	400	400	67768	-33903
464	654	400	400	67768	-33903
465	654	400	400	67878	-33811
466	654	400	400	67878	-33811
467	654	400	400	67878	-33811
468	654	400	400	67984	-33713
469	653	400	400	67984	-33713
470	654	400	400	67984	-33713
471	654	400	400	68091	-33619
472	653	400	400	68091	-33619
473	654	400	400	68091	-33619
474	653	400	400	68198	-33524
475	654	400	400	68198	-33524
476	653	400	400	68198	-33524
477	653	400	400	68306	-33428
478	653	400	400	68306	-33428
479	653	400	400	68306	-33428
480	653	400	400	68413	-33338
481	654	400	400	68413	-33338
482	654	400	400	68413	-33338
483	654	400	400	68521	-33245
484	654	400	400	68521	-33245
485	653	400	400	68521	-33245
486	653	400	400	68625	-33245
487	653	400	400	68625	-33151
488	654	400	400	68625	-33151
489	654	400	400	68731	-33151
490	653	400	400	68731	-33056
491	654	400	400	68731	-33056
492	653	400	400	68838	-33056
493	654	400	400	68838	-32962
494	654	400	400	68838	-32962
495	654	400	400	68942	-32962
496	654	400	400	68942	-32866
497	654	400	400	68942	-32866
498	652	400	400	69048	-32866
499	653	400	400	69048	-32771
500	654	400	400	69048	-32771
501	654	400	400	69155	-32771
502	652	400	400	69155	-32675
503	654	400	400	69155	-32675
504	654	400	400	69259	-32675
505	654	400	400	69259	-32582
506	654	400	400	69259	-32582
507	652	400	400	69363	-32582
508	653	400	400	69363	-32487
509	653	400	400	69363	-32487
510	654	400	400	69465	-32487
511	654	400	400	69465	-32396
512	654	400	400	69465	-32396
513	652	400	400	69570	-32396
514	654	400	400	69570	-32305
515	654	400	400	69570	-32305
516	654	400	400	69677	-32305
517	653	400	400	69677	-32213
518	654	400	400	69677	-32213
519	654	400	400	69780	-32213
520	654	400	400	69780	-32126
521	652	400	400	69780	-32126
522	653	400	400	69881	-32126
523	654	400	400	69881	-32031
524	654	400	400	69881	-32031
525	654	400	400	69987	-32031
526	653	400	400	69987	-31939
527	654	400	400	69987	-31939
528	654	400	400	70090	-31939
529	653	400	400	70090	-31849
530	654	400	400	70090	-31849
531	654	400	400	70194	-31849
532	653	400	400	70194	-31761
533	654	400	400	70194	-31761
534	654	400	400	70294	-31761
535	653	400	400	70294	-31667
536	653	400	400	70294	-31667
537	654	400	400	70294	-31667
538	654	400	400	70396	-31577
539	654	400	400	70396	-31577
540	653	400	400	70396	-31577
541	653	400	400	70499	-31486
542	654	400	400	70499	-31486
543	654	400	400	70499	-31486
544	653	400	400	70602	-31394
545	653	400	400	70602	-31394
546	654	400	400	70602	-31394
547	654	400	400	70704	-31308
548	653	400	400	70704	-31308
549	654	400	400	70704	-31308
550	653	400	400	70806	-31217
551	654	400	400	70806	-31217
552	653	400	400	70806	-31217
553	654	400	400	70909	-31125
554	653	400	400	70909	-31125
555	653	400	400	70909	-31125
556	652	400	400	71010	-31035
557	654	400	400	71010	-31035
558	653	400	400	71010	-31035
559	654	400	400	71112	-30941
560	654	400	400	71112	-30941
561	654	400	400	71112	-30941
562	654	400	400	71216	-30849
563	653	400	400	71216	-30849
564	653	400	400	71216	-30849
565	653	400	400	71318	-30758
566	654	400	400	71318	-30758
567	654	400	400	71318	-30758
568	654	400	400	71418	-30667
569	653	400	400	71418	-30667
570	653	400	400	71418	-30667
571	653	400	400	71515	-30579
572	653	400	400	71515	-30579
573	653	400	400	71515	-30579
574	653	400	400	71615	-30489
575	653	400	400	71615	-30489
576	653	400	400	71615	-30489
577	654	400	400	71717	-30399
578	653	400	400	71717	-30399
579	654	400	400	71717	-30399
580	654	400	400	71816	-30309
581	654	400	400	71816	-30309
582	653	400	400	71816	-30309
583	654	400	400	71913	-30225
584	653	400	400	71913	-30225
585	654	400	400	71913	-30225
586	654	400	400	72014	-30136
587	654	400	400	72014	-30136
588	653	400	400	72014	-30136
589	653	400	400	72115	-30050
590	653	400	400	72115	-30050
591	653	400	400	72115	-30050
592	653	400	400	72216	-29965
593	654	400	400	72216	-29965
594	653	400	400	72216	-29965
595	653	400	400	72312	-29876
596	653	400	400	72312	-29876
597	654	400	400	72312	-29876
598	653	400	400	72413	-29789
599	653	400	400	72413	-29789
600	653	400	400	72413	-29789
601	653	400	400	72512	-29705
602	654	400	400	72512	-29705
603	654	400	400	72512	-29705
604	653	400	400	72611	-29705
605	653	400	400	72611	-29610
606	653	400	400	72611	-29610
607	654	400	400	72709	-29610
608	653	400	400	72709	-29522
609	653	400	400	72709	-29522
610	654	400	400	72810	-29522
611	653	400	400	72810	-29433
612	653	400	400	72810	-29433
613	654	400	400	72908	-29433
614	654	400	400	72908	-29344
615	653	400	400	72908	-29344
616	653	400	400	73007	-29344
617	654	400	400	73007	-29262
618	654	400	400	73007	-29262
619	654	400	400	73103	-29262
620	653	400	400	73103	-29174
621	654	400	400	73103	-29174
622	654	400	400	73202	-29174
623	653	400	400	73202	-29087
624	652	400	400	73202	-29087
625	653	400	400	73300	-29087
626	653	400	400	73300	-29000
627	654	400	400	73300	-29000
628	653	400	400	73396	-29000
629	654	400	400	73396	-28909
630	652	400	400	73396	-28909
631	653	400	400	73496	-28909
632	654	400	400	73496	-28819
633	653	400	400	73496	-28819
634	653	400	400	73591	-28819
635	653	400	400	73591	-28731
636	654	400	400	73591	-28731
637	653	400	400	73688	-28731
638	654	400	400	73688	-28642
639	654	400	400	73688	-28642
640	654	400	400	73787	-28642
641	653	400	400	73787	-28555
642	654	400	400	73787	-28555
643	654	400	400	73883	-28555
644	653	400	400	73883	-28467
645	654	400	400	73883	-28467
646	653	400	400	73976	-28467
647	654	400	400	73976	-28379
648	653	400	400	73976	-28379
649	653	400	400	74076	-28379
650	653	400	400	74076	-28294
651	654	400	400	74076	-28294
652	653	400	400	74173	-28294
653	654	400	400	74173	-28211
654	654	400	400	74173	-28211
655	653	400	400	74173	-28211
656	654	400	400	74271	-28126
657	653	400	400	74271	-28126
658	654	400	400	74271	-28126
659	653	400	400	74362	-28046
660	654	400	400	74362	-28046
661	653	400	400	74362	-28046
662	654	400	400	74459	-27959
663	653	400	400	74459	-27959
664	653	400	400	74459	-27959
665	652	400	400	74554	-27874
666	653	400	400	74554	-27874
667	653	400	400	74554	-27874
668	653	400	400	74648	-27790
669	654	400	400	74648	-27790
670	654	400	400	74648	-27790
671	653	400	400	74744	-27706
672	652	400	400	74744	-27706
673	654	400	400	74744	-27706
674	654	400	400	74841	-27625
675	654	400	400	74841	-27625
676	653	400	400	74841	-27625
677	654	400	400	74935	-27539
678	653	400	400	74935	-27539
679	653	400	400	74935	-27539
680	654	400	400	75031	-27456
681	654	400	400	75031	-27456
682	653	400	400	75031	-27456
683	653	400	400	75123	-27374
684	654	400	400	75123	-27374
685	652	400	400	75123	-27374
686	653	400	400	75218	-27290
687	654	400	400	75218	-27290
688	653	400	400	75218	-27290
689	654	400	400	75312	-27211
690	653	400	400	75312	-27211
691	654	400	400	75312	-27211
692	652	400	400	75404	-27127
693	653	400	400	75404	-27127
694	654	400	400	75404	-27127
695	654	400	400	75497	-27045
696	654	400	400	75497	-27045
697	654	400	400	75497	-27045
698	654	400	400	75586	-26965
699	653	400	400	75586	-26965
700	653	400	400	75586	-26965
701	653	400	400	75680	-26879
702	654	400	400	75680	-26879
703	653	400	400	75680	-26879
704	653	400	400	75770	-26795
705	654	400	400	75770	-26795
706	653	400	400	75770	-26795
707	653	400	400	75864	-26713
708	653	400	400	75864	-26713
709	652	400	400	75864	-26713
710	652	400	400	75954	-26629
711	652	400	400	75954	-26629
712	653	400	400	75954	-26629
713	653	400	400	76048	-26545
714	652	400	400	76048	-26545
715	653	400	400	76048	-26545
716	653	400	400	76141	-26461
717	653	400	400	76141	-26461
718	654	400	400	76141	-26461
719	654	400	400	76233	-26375
720	654	400	400	76233	-26375
721	653	400	400	76233	-26375
722	653	400	400	76326	-26375
723	653	400	400	76326	-26291
724	654	400	400	76326	-26291
725	652	400	400	76412	-26291
726	653	400	400	76412	-26209
727	653	400	400	76412	-26209
728	653	400	400	76505	-26209
729	653	400	400	76505	-26131
730	654	400	400	76505	-26131
731	653	400	400	76596	-26131
732	654	400	400	76596	-26051
733	654	400	400	76596	-26051
734	654	400	400	76686	-26051
735	654	400	400	76686	-25976
736	654	400	400	76686	-25976
737	654	400	400	76779	-25976
738	654	400	400	76779	-25894
739	654	400	400	76779	-25894
740	654	400	400	76871	-25894
741	654	400	400	76871	-25812
742	654	400	400	76871	-25812
743	653	400	400	76961	-25812
744	654	400	400	76961	-25731
745	653	400	400	76961	-25731
746	653	400	400	77053	-25731
747	653	400	400	77053	-25651
748	653	400	400	77053	-25651
749	652	400	400	77143	-25651
750	653	400	400	77143	-25572
751	654	400	400	77143	-25572
752	654	400	400	77233	-25572
753	654	400	400	77233	-25488
754	653	400	400	77233	-25488
755	654	400	400	77323	-25488
756	653	400	400	77323	-25407
757	652	400	400	77323	-25407
758	653	400	400	77412	-25407
759	653	400	400	77412	-25328
760	653	400	400	77412	-25328
761	653	400	400	77497	-25328
762	654	400	400	77497	-25248
763	653	400	400	77497	-25248
764	653	400	400	77585	-25248
765	654	400	400	77585	-25174
766	653	400	400	77585	-25174
767	654	400	400	77667	-25174
768	654	400	400	77667	-25093
769	653	400	400	77667	-25093
770	654	400	400	77753	-25093
771	653	400	400	77753	-25015
772	654	400	400	77753	-25015
773	652	400	400	77753	-25015
774	653	400	400	77840	-24937
775	653	400	400	77840	-24937
776	654	400	400	77840	-24937
777	654	400	400	77926	-24855
778	653	400	400	77926	-24855
779	654	400	400	77926	-24855
780	653	400	400	78009	-24774
781	653	400	400	78009	-24774
782	654	400	400	78009	-24774
783	654	400	400	78098	-24692
784	654	400	400	78098	-24692
785	653	400	400	78098	-24692
786	654	400	400	78184	-24612
787	653	400	400	78184	-24612
788	653	400	400	78184	-24612
789	654	400	400	78270	-24530
790	654	400	400	78270	-24530
791	654	400	400	78270	-24530
792	654	400	400	78356	-24451
793	654	400	400	78356	-24451
794	652	400	400	78356	-24451
795	652	400	400	78440	-24370
796	654	400	400	78440	-24370
797	654	400	400	78440	-24370
798	654	400	400	78527	-24292
799	653	400	400	78527	-24292
800	654	400	400	78527	-24292
801	653	400	400	78614	-24216
802	653	400	400	78614	-24216
803	654	400	400	78614	-24216
804	653	400	400	78699	-24140
805	653	400	400	78699	-24140
806	653	400	400	78699	-24140
807	654	400	400	78786	-24065
808	654	400	400	78786	-24065
809	654	400	400	78786	-24065
810	654	400	400	78871	-23987
811	654	400	400	78871	-23987
812	656	400	400	78871	-23987
813	658	400	400	78957	-23912
814	658	400	400	78957	-23912
815	656	400	400	78957	-23912
816	657	400	400	79041	-23833
817	658	400	400	79041	-23833
818	658	400	400	79041	-23833
819	658	400	400	79129	-23753
820	659	400	400	79129	-23753
821	658	400	400	79129	-23753
822	659	400	400	79214	-23677
823	658	400	400	79214	-23677
824	658	400	400	79214	-23677
825	658	400	400	79299	-23603
826	658	400	400	79299	-23603
827	657	400	400	79299	-23603
828	657	400	400	79385	-23603
829	655	400	400	79385	-23530
830	658	400	400	79385	-23530
831	657	400	400	79469	-23530
832	658	400	400	79469	-23450
833	658	400	400	79469	-23450
834	658	400	400	79551	-23450
835	658	400	400	79551	-23376
836	657	400	400	79551	-23376
837	658	400	400	79637	-23376
838	656	400	400	79637	-23301
839	657	400	400	79637	-23301
840	657	400	400	79718	-23301
841	658	400	400	79718	-23228
842	658	400	400	79718	-23228
843	658	400	400	79801	-23228
844	658	400	400	79801	-23156
845	658	400	400	79801	-23156
846	658	400	400	79886	-23156
847	658	400	400	79886	-23080
848	658	400	400	79886	-23080
849	658	400	400	79971	-23080
850	658	400	400	79971	-23009
851	657	400	400	79971	-23009
852	658	400	400	80050	-23009
853	658	400	400	80050	-22936
854	656	400	400	80050	-22936
855	658	400	400	80133	-22936
856	656	400	400	80133	-22864
857	658	400	400	80133	-22864
858	658	400	400	80219	-22864
859	658	400	400	80219	-22787
860	657	400	400	80219	-22787
861	658	400	400	80303	-22787
862	658	400	400	80303	-22711
863	658	400	400	80303	-22711
864	658	400	400	80384	-22711
865	658	400	400	80384	-22634
866	658	400	400	80384	-22634
867	657	400	400	80466	-22634
868	657	400	400	80466	-22559
869	658	400	400	80466	-22559
870	657	400	400	80550	-22559
871	656	400	400	80550	-22483
872	658	400	400	80550	-22483
873	657	400	400	80631	-22483
874	657	400	400	80631	-22407
875	659	400	400	80631	-22407
876	658	400	400	80631	-22407
877	658	400	400	80713	-22330
878	658	400	400	80713	-22330
879	657	400	400	80713	-22330
880	658	400	400	80795	-22254
881	658	400	400	80795	-22254
882	657	400	400	80795	-22254
883	658	400	400	80878	-22181
884	658	400	400	80878	-22181
885	658	400	400	80878	-22181
886	658	400	400	80962	-22108
887	658	400	400	80962	-22108
888	658	400	400	80962	-22108
889	657	400	400	81044	-22038
890	658	400	400	81044	-22038
891	658	400	400	81044	-22038
892	658	400	400	81129	-21965
893	658	400	400	81129	-21965
894	658	400	400	81129	-21965
895	658	400	400	81212	-21899
896	658	400	400	81212	-21899
897	658	400	400	81212	-21899
898	657	400	400	81293	-21824
899	657	400	400	81293	-21824
900	658	400	400	81293	-21824
901	658	400	400	81375	-21751
902	658	400	400	81375	-21751
903	658	400	400	81375	-21751
904	658	400	400	81454	-21676
905	658	400	400	81454	-21676
906	658	400	400	81454	-21676
907	658	400	400	81535	-21604
908	656	400	400	81535	-21604
909	657	400	400	81535	-21604
910	657	400	400	81614	-21534
911	658	400	400	81614	-21534
912	658	400	400	81614	-21534
913	658	400	400	81696	-21463
914	659	400	400	81696	-21463
915	658	400	400	81696	-21463
916	658	400	400	81775	-21387
917	658	400	400	81775	-21387
918	658	400	400	81775	-21387
919	658	400	400	81856	-21314
920	658	400	400	81856	-21314
921	657	400	400	81856	-21314
922	657	400	400	81939	-21245
923	657	400	400	81939	-21245
924	656	400	400	81939	-21245
925	657	400	400	82021	-21176
926	657	400	400	82021	-21176
927	658	400	400	82021	-21176
928	659	400	400	82097	-21109
929	658	400	400	82097	-21109
930	658	400	400	82097	-21109
931	657	400	400	82174	-21039
932	657	400	400	82174	-21039
933	657	400	400	82174	-21039
934	658	400	400	82256	-20972
935	658	400	400	82256	-20972
936	658	400	400	82256	-20972
937	658	400	400	82338	-20904
938	658	400	400	82338	-20904
939	658	400	400	82338	-20904
940	658	400	400	82415	-20837
941	658	400	400	82415	-20837
942	658	400	400	82415	-20837
943	658	400	400	82494	-20764
944	658	400	400	82494	-20764
945	658	400	400	82494	-20764
946	658	400	400	82571	-20764
947	658	400	400	82571	-20692
948	657	400	400	82571	-20692
949	657	400	400	82650	-20692
950	657	400	400	82650	-20618
951	657	400	400	82650	-20618
952	658	400	400	82725	-20618
953	657	400	400	82725	-20550
954	658	400	400	82725	-20550
955	658	400	400	82797	-20550
956	658	400	400	82797	-20479
957	658	400	400	82797	-20479
958	658	400	400	82876	-20479
959	658	400	400	82876	-20408
960	657	400	400	82876	-20408
961	657	400	400	82954	-20408
962	656	400	400	82954	-20339
963	658	400	400	82954	-20339
964	658	400	400	83033	-20339
965	658	400	400	83033	-20269
966	658	400	400	83033	-20269
967	658	400	400	83110	-20269
968	658	400	400	83110	-20201
969	658	400	400	83110	-20201
970	658	400	400	83189	-20201
971	657	400	400	83189	-20137
972	658	400	400	83189	-20137
973	658	400	400	83266	-20137
974	658	400	400	83266	-20070
975	658	400	400	83266	-20070
976	659	400	400	83344	-20070
977	657	400	400	83344	-20007
978	658	400	400	83344	-20007
979	658	400	400	83420	-20007
980	657	400	400	83420	-19941
981	658	400	400	83420	-19941
982	658	400	400	83495	-19941
983	658	400	400	83495	-19880
984	658	400	400	83495	-19880
985	658	400	400	83571	-19880
986	658	400	400	83571	-19816
987	658	400	400	83571	-19816
988	657	400	400	83571	-19816
989	658	400	400	83646	-19750
990	657	400	400	83646	-19750
991	657	400	400	83646	-19750
992	658	400	400	83725	-19682
993	658	400	400	83725	-19682
994	658	400	400	83725	-19682
995	658	400	400	83797	-19615
996	658	400	400	83797	-19615
997	657	400	400	83797	-19615
998	658	400	400	83878	-19551
999	658	400	400	83878	-19551
1000	655	400	400	83878	-19551
1001	657	400	400	83955	-19489
1002	658	400	400	83955	-19489
1003	658	400	400	83955	-19489
1004	657	400	400	84032	-19424
1005	658	400	400	84032	-19424
1006	658	400	400	84032	-19424
1007	658	400	400	84107	-19353
1008	658	400	400	84107	-19353
1009	658	400	400	84107	-19353
1010	658	400	400	84180	-19288
1011	658	400	400	84180	-19288
1012	658	400	400	84180	-19288
1013	658	400	400	84263	-19223
1014	657	400	400	84263	-19223
1015	657	400	400	84263	-19223
1016	657	400	400	84340	-19162
1017	658	400	400	84340	-19162
1018	658	400	400	84340	-19162
1019	658	400	400	84418	-19097
1020	658	400	400	84418	-19097
1021	658	400	400	84418	-19097
1022	658	400	400	84497	-19038
1023	657	400	400	84497	-19038
1024	658	400	400	84497	-19038
1025	657	400	400	84573	-18971
1026	656	400	400	84573	-18971
1027	656	400	400	84573	-18971
1028	657	400	400	84650	-18909
1029	657	400	400	84650	-18909
1030	658	400	400	84650	-18909
1031	658	400	400	84723	-18847
1032	658	400	400	84723	-18847
1033	658	400	400	84723	-18847
1034	658	400	400	84797	-18786
1035	656	400	400	84797	-18786
1036	657	400	400	84797	-18786
1037	658	400	400	84870	-18720
1038	658	400	400	84870	-18720
1039	658	400	400	84870	-18720
1040	658	400	400	84950	-18655
1041	658	400	400	84950	-18655
1042	658	400	400	84950	-18655
1043	659	400	400	85026	-18588
1044	658	400	400	85026	-18588
1045	658	400	400	85026	-18588
1046	658	400	400	85101	-18525
1047	658	400	400	85101	-18525
1048	658	400	400	85101	-18525
1049	658	400	400	85172	-18461
1050	657	400	400	85172	-18461
1051	657	400	400	85172	-18461
1052	657	400	400	85246	-18396
1053	657	400	400	85246	-18396
1054	658	400	400	85246	-18396
1055	657	400	400	85319	-18329
1056	658	400	400	85319	-18329
1057	658	400	400	85319	-18329
1058	658	400	400	85393	-18263
1059	657	400	400	85393	-18263
1060	658	400	400	85393	-18263
1061	657	400	400	85467	-18199
1062	656	400	400	85467	-18199
1063	658	400	400	85467	-18199
1064	657	400	400	85539	-18199
1065	657	400	400	85539	-18137
1066	658	400	400	85539	-18137
1067	659	400	400	85613	-18137
1068	658	400	400	85613	-18076
1069	658	400	400	85613	-18076
1070	657	400	400	85683	-18076
1071	658	400	400	85683	-18014
1072	657	400	400	85683	-18014
1073	657	400	400	85755	-18014
1074	658	400	400	85755	-17955
1075	657	400	400	85755	-17955
1076	658	400	400	85822	-17955
1077	659	400	400	85822	-17893
1078	658	400	400	85822	-17893
1079	658	400	400	85891	-17893
1080	658	400	400	85891	-17836
1081	658	400	400	85891	-17836
1082	657	400	400	85963	-17836
1083	657	400	400	85963	-17779
1084	658	400	400	85963	-17779
1085	657	400	400	86037	-17779
1086	657	400	400	86037	-17715
1087	658	400	400	86037	-17715
1088	657	400	400	86109	-17715
1089	656	400	400	86109	-17652
1090	658	400	400	86109	-17652
1091	657	400	400	86178	-17652
1092	657	400	400	86178	-17586
1093	658	400	400	86178	-17586
1094	658	400	400	86247	-17586
1095	658	400	400	86247	-17526
1096	658	400	400	86247	-17526
1097	658	400	400	86324	-17526
1098	657	400	400	86324	-17467
1099	659	400	400	86324	-17467
1100	657	400	400	86395	-17467
1101	658	400	400	86395	-17410
1102	658	400	400	86395	-17410
1103	656	400	400	86468	-17410
1104	658	400	400	86468	-17343
1105	658	400	400	86468	-17343
1106	658	400	400	86539	-17343
1107	658	400	400	86539	-17280
1108	658	400	400	86539	-17280
1109	658	400	400	86539	-17280
1110	658	400	400	86609	-17218
1111	658	400	400	86609	-17218
1112	658	400	400	86609	-17218
1113	658	400	400	86681	-17161
1114	657	400	400	86681	-17161
1115	658	400	400	86681	-17161
1116	656	400	400	86754	-17106
1117	657	400	400	86754	-17106
1118	658	400	400	86754	-17106
1119	657	400	400	86825	-17049
1120	657	400	400	86825	-17049
1121	657	400	400	86825	-17049
1122	658	400	400	86893	-16995
1123	658	400	400	86893	-16995
1124	658	400	400	86893	-16995
1125	658	400	400	86967	-16932
1126	657	400	400	86967	-16932
1127	658	400	400	86967	-16932
1128	657	400	400	87038	-16875
1129	658	400	400	87038	-16875
1130	658	400	400	87038	-16875
1131	658	400	400	87111	-16818
1132	659	400	400	87111	-16818
1133	658	400	400	87111	-16818
1134	659	400	400	87179	-16760
1135	658	400	400	87179	-16760
1136	658	400	400	87179	-16760
1137	658	400	400	87250	-16701
1138	658	400	400	87250	-16701
1139	658	400	400	87250	-16701
1140	658	400	400	87323	-16636
1141	657	400	400	87323	-16636
1142	657	400	400	87323	-16636
1143	657	400	400	87393	-16573
1144	657	400	400	87393	-16573
1145	657	400	400	87393	-16573
1146	656	400	400	87465	-16511
1147	657	400	400	87465	-16511
1148	658	400	400	87465	-16511
1149	658	400	400	87536	-16456
1150	658	400	400	87536	-16456
1151	658	400	400	87536	-16456
1152	658	400	400	87604	-16395
1153	657	400	400	87604	-16395
1154	658	400	400	87604	-16395
1155	657	400	400	87675	-16334
1156	658	400	400	87675	-16334
1157	658	400	400	87675	-16334
1158	658	400	400	87743	-16273
1159	658	400	400	87743	-16273
1160	658	400	400	87743	-16273
1161	658	400	400	87812	-16212
1162	658	400	400	87812	-16212
1163	658	400	400	87812	-16212
1164	658	400	400	87875	-16153
1165	658	400	400	87875	-16153
1166	658	400	400	87875	-16153
1167	658	400	400	87944	-16097
1168	658	400	400	87944	-16097
1169	658	400	400	87944	-16097
1170	658	400	400	88013	-16043
1171	657	400	400	88013	-16043
1172	657	400	400	88013	-16043
1173	658	400	400	88086	-15988
1174	658	400	400	88086	-15988
1175	658	400	400	88086	-15988
1176	658	400	400	88156	-15932
1177	657	400	400	88156	-15932
1178	657	400	400	88156	-15932
1179	657	400	400	88222	-15932
1180	658	400	400	88222	-15878
1181	657	400	400	88222	-15878
1182	658	400	400	88286	-15878
1183	658	400	400	88286	-15823
1184	658	400	400	88286	-15823
1185	657	400	400	88361	-15823
1186	658	400	400	88361	-15775
1187	658	400	400	88361	-15775
1188	658	400	400	88429	-15775
1189	657	400	400	88429	-15720
1190	658	400	400	88429	-15720
1191	658	400	400	88498	-15720
1192	658	400	400	88498	-15662
1193	658	400	400	88498	-15662
1194	658	400	400	88562	-15662
1195	658	400	400	88562	-15603
1196	658	400	400	88562	-15603
1197	658	400	400	88630	-15603
1198	658	400	400	88630	-15541
1199	658	400	400	88630	-15541
1200	658	400	400	88694	-15541
1201	658	400	400	88694	-15485
1202	658	400	400	88694	-15485
1203	658	400	400	88764	-15485
1204	658	400	400	88764	-15431
1205	658	400	400	88764	-15431
1206	658	400	400	88829	-15431
1207	657	400	400	88829	-15377
1208	658	400	400	88829	-15377
1209	657	400	400	88894	-15377
1210	658	400	400	88894	-15318
1211	657	400	400	88894	-15318
1212	658	400	400	88958	-15318
1213	658	400	400	88958	-15255
1214	658	400	400	88958	-15255
1215	657	400	400	89029	-15255
1216	657	400	400	89029	-15198
1217	657	400	400	89029	-15198
1218	657	400	400	89098	-15198
1219	658	400	400	89098	-15141
1220	657	400	400	89098	-15141
1221	658	400	400	89168	-15141
1222	657	400	400	89168	-15090
1223	658	400	400	89168	-15090
1224	658	400	400	89233	-15090
1225	658	400	400	89233	-15035
1226	658	400	400	89233	-15035
1227	658	400	400	89302	-15035
1228	657	400	400	89302	-14980
1229	658	400	400	89302	-14980
1230	658	400	400	89372	-14980
1231	658	400	400	89372	-14924
1232	656	400	400	89372	-14924
1233	657	400	400	89372	-14924
1234	658	400	400	89439	-14864
1235	658	400	400	89439	-14864
1236	657	400	400	89439	-14864
1237	656	400	400	89507	-14811
1238	658	400	400	89507	-14811
1239	658	400	400	89507	-14811
1240	658	400	400	89571	-14757
1241	657	400	400	89571	-14757
1242	659	400	400	89571	-14757
1243	658	400	400	89634	-14704
1244	657	400	400	89634	-14704
1245	657	400	400	89634	-14704
1246	658	400	400	89699	-14646
1247	658	400	400	89699	-14646
1248	657	400	400	89699	-14646
1249	656	400	400	89763	-14585
1250	657	400	400	89763	-14585
1251	658	400	400	89763	-14585
1252	658	400	400	89827	-14525
1253	657	400	400	89827	-14525
1254	658	400	400	89827	-14525
1255	658	400	400	89891	-14465
1256	657	400	400	89891	-14465
1257	657	400	400	89891	-14465
1258	658	400	400	89952	-14412
1259	658	400	400	89952	-14412
1260	658	400	400	89952	-14412
1261	657	400	400	90020	-14353
1262	658	400	400	90020	-14353
1263	658	400	400	90020	-14353
1264	657	400	400	90086	-14292
1265	658	400	400	90086	-14292
1266	658	400	400	90086	-14292
1267	658	400	400	90154	-14232
1268	658	400	400	90154	-14232
1269	658	400	400	90154	-14232
1270	658	400	400	90218	-14171
1271	658	400	400	90218	-14171
1272	657	400	400	90218	-14171
1273	657	400	400	90277	-14114
1274	658	400	400	90277	-14114
1275	658	400	400	90277	-14114
1276	657	400	400	90338	-14059
1277	658	400	400	90338	-14059
1278	658	400	400	90338	-14059
1279	657	400	400	90408	-14006
1280	658	400	400	90408	-14006
1281	658	400	400	90408	-14006
1282	657	400	400	90471	-13951
1283	657	400	400	90471	-13951
1284	657	400	400	90471	-13951
1285	658	400	400	90535	-13895
1286	657	400	400	90535	-13895
1287	658	400	400	90535	-13895
1288	657	400	400	90594	-13841
1289	657	400	400	90594	-13841
1290	656	400	400	90594	-13841
1291	658	400	400	90656	-13787
1292	658	400	400	90656	-13787
1293	658	400	400	90656	-13787
1294	657	400	400	90718	-13740
1295	657	400	400	90718	-13740
1296	657	400	400	90718	-13740
1297	658	400	400	90782	-13740
1298	658	400	400	90782	-13691
1299	658	400	400	90782	-13691
1300	658	400	400	90847	-13691
1301	658	400	400	90847	-13634
1302	658	400	400	90847	-13634
1303	658	400	400	90908	-13634
1304	658	400	400	90908	-13581
1305	658	400	400	90908	-13581
1306	658	400	400	90966	-13581
1307	658	400	400	90966	-13522
1308	658	400	400	90966	-13522
1309	657	400	400	91029	-13522
1310	657	400	400	91029	-13467
1311	658	400	400	91029	-13467
1312	657	400	400	91095	-13467
1313	658	400	400	91095	-13416
1314	658	400	400	91095	-13416
1315	658	400	400	91158	-13416
1316	657	400	400	91158	-13364
1317	657	400	400	91158	-13364
1318	658	400	400	91222	-13364
1319	656	400	400	91222	-13314
1320	658	400	400	91222	-13314
1321	657	400	400	91279	-13314
1322	657	400	400	91279	-13255
1323	658	400	400	91279	-13255
1324	658	400	400	91342	-13255
1325	657	400	400	91342	-13198
1326	658	400	400	91342	-13198
1327	658	400	400	91406	-13198
1328	657	400	400	91406	-13143
1329	658	400	400	91406	-13143
1330	658	400	400	91470	-13143
1331	658	400	400	91470	-13088
1332	658	400	400	91470	-13088
1333	657	400	400	91535	-13088
1334	657	400	400	91535	-13041
1335	658	400	400	91535	-13041
1336	658	400	400	91597	-13041
1337	656	400	400	91597	-12991
1338	658	400	400	91597	-12991
1339	658	400	400	91656	-12991
1340	658	400	400	91656	-12942
1341	657	400	400	91656	-12942
1342	657	400	400	91716	-12942
1343	658	400	400	91716	-12891
1344	658	400	400	91716	-12891
1345	657	400	400	91779	-12891
1346	657	400	400	91779	-12836
1347	658	400	400	91779	-12836
1348	658	400	400	91779	-12836
1349	656	400	400	91839	-12788
1350	658	400	400	91839	-12788
1351	658	400	400	91839	-12788
1352	658	400	400	91902	-12743
1353	658	400	400	91902	-12743
1354	658	400	400	91902	-12743
1355	657	400	400	91958	-12696
1356	658	400	400	91958	-12696
1357	657	400	400	91958	-12696
1358	657	400	400	92016	-12647
1359	658	400	400	92016	-12647
1360	658	400	400	92016	-12647
1361	657	400	400	92078	-12593
1362	658	400	400	92078	-12593
1363	658	400	400	92078	-12593
1364	658	400	400	92141	-12536
1365	658	400	400	92141	-12536
1366	659	400	400	92141	-12536
1367	662	400	400	92204	-12482
1368	662	400	400	92204	-12482
1369	661	400	400	92204	-12482
1370	662	400	400	92264	-12425
1371	662	400	400	92264	-12425
1372	662	400	400	92264	-12425
1373	661	400	400	92321	-12374
1374	662	400	400	92321	-12374
1375	661	400	400	92321	-12374
1376	662	400	400	92377	-12321
1377	661	400	400	92377	-12321
1378	662	400	400	92377	-12321
1379	661	400	400	92444	-12264
1380	662	400	400	92444	-12264
1381	661	400	400	92444	-12264
1382	662	400	400	92505	-12209
1383	662	400	400	92505	-12209
1384	661	400	400	92505	-12209
1385	662	400	400	92567	-12155
1386	662	400	400	92567	-12155
1387	661	400	400	92567	-12155
1388	662	400	400	92622	-12102
1389	661	400	400	92622	-12102
1390	662	400	400	92622	-12102
1391	662	400	400	92678	-12053
1392	662	400	400	92678	-12053
1393	662	400	400	92678	-12053
1394	662	400	400	92736	-12004
1395	662	400	400	92736	-12004
1396	662	400	400	92736	-12004
1397	662	400	400	92794	-11957
1398	661	400	400	92794	-11957
1399	662	400	400	92794	-11957
1400	662	400	400	92855	-11907
1401	661	400	400	92855	-11907
1402	662	400	400	92855	-11907
1403	662	400	400	92910	-11855
1404	661	400	400	92910	-11855
1405	662	400	400	92910	-11855
1406	661	400	400	92966	-11806
1407	662	400	400	92966	-11806
1408	662	400	400	92966	-11806
1409	661	400	400	93018	-11806
1410	661	400	400	93018	-11755
1411	662	400	400	93018	-11755
1412	660	400	400	93073	-11755
1413	662	400	400	93073	-11711
1414	661	400	400	93073	-11711
1415	662	400	400	93133	-11711
1416	661	400	400	93133	-11669
1417	662	400	400	93133	-11669
1418	661	400	400	93189	-11669
1419	661	400	400	93189	-11619
1420	662	400	400	93189	-11619
1421	662	400	400	93248	-11619
1422	661	400	400	93248	-11568
1423	661	400	400	93248	-11568
1424	661	400	400	93302	-11568
1425	661	400	400	93302	-11518
1426	661	400	400	93302	-11518
1427	661	400	400	93357	-11518
1428	661	400	400	93357	-11465
1429	661	400	400	93357	-11465
1430	661	400	400	93417	-11465
1431	661	400	400	93417	-11416
1432	661	400	400	93417	-11416
1433	661	400	400	93477	-11416
1434	661	400	400	93477	-11370
1435	661	400	400	93477	-11370
1436	662	400	400	93535	-11370
1437	661	400	400	93535	-11326
1438	661	400	400	93535	-11326
1439	662	400	400	93593	-11326
1440	662	400	400	93593	-11281
1441	660	400	400	93593	-11281
1442	662	400	400	93648	-11281
1443	661	400	400	93648	-11231
1444	661	400	400	93648	-11231
1445	661	400	400	93700	-11231
1446	661	400	400	93700	-11177
1447	661	400	400	93700	-11177
1448	662	400	400	93754	-11177
1449	660	400	400	93754	-11128
1450	661	400	400	93754	-11128
1451	661	400	400	93813	-11128
1452	662	400	400	93813	-11077
1453	661	400	400	93813	-11077
1454	661	400	400	93868	-11077
1455	660	400	400	93868	-11032
1456	661	400	400	93868	-11032
1457	662	400	400	93925	-11032
1458	661	400	400	93925	-10991
1459	660	400	400	93925	-10991
1460	662	400	400	93979	-10991
1461	661	400	400	93979	-10946
1462	659	400	400	93979	-10946
1463	661	400	400	94028	-10946
1464	661	400	400	94028	-10900
1465	661	400	400	94028	-10900
1466	661	400	400	94085	-10900
1467	660	400	400	94085	-10857
1468	661	400	400	94085	-10857
1469	662	400	400	94085	-10857
1470	661	400	400	94143	-10809
1471	662	400	400	94143	-10809
1472	661	400	400	94143	-10809
1473	661	400	400	94203	-10760
1474	660	400	400	94203	-10760
1475	662	400	400	94203	-10760
1476	661	400	400	94263	-10718
1477	662	400	400	94263	-10718
1478	661	400	400	94263	-10718
1479	662	400	400	94319	-10677
1480	661	400	400	94319	-10677
1481	662	400	400	94319	-10677
1482	661	400	400	94371	-10633
1483	662	400	400	94371	-10633
1484	661	400	400	94371	-10633
1485	662	400	400	94423	-10586
1486	662	400	400	94423	-10586
1487	661	400	400	94423	-10586
1488	662	400	400	94485	-10535
1489	661	400	400	94485	-10535
1490	662	400	400	94485	-10535
1491	662	400	400	94542	-10483
1492	662	400	400	94542	-10483
1493	661	400	400	94542	-10483
1494	662	400	400	94599	-10433
1495	661	400	400	94599	-10433
1496	662	400	400	94599	-10433
1497	662	400	400	94652	-10383
1498	662	400	400	94652	-10383
1499	662	400	400	94652	-10383
1500	662	400	400	94704	-10340
1501	661	400	400	94704	-10340
1502	662	400	400	94704	-10340
1503	662	400	400	94758	-10295
1504	662	400	400	94758	-10295
1505	661	400	400	94758	-10295
1506	662	400	400	94812	-10246
1507	662	400	400	94812	-10246
1508	662	400	400	94812	-10246
1509	661	400	400	94869	-10197
1510	662	400	400	94869	-10197
1511	661	400	400	94869	-10197
1512	662	400	400	94926	-10147
1513	661	400	400	94926	-10147
1514	661	400	400	94926	-10147
1515	661	400	400	94978	-10096
1516	662	400	400	94978	-10096
1517	662	400	400	94978	-10096
1518	662	400	400	95030	-10046
1519	661	400	400	95030	-10046
1520	661	400	400	95030	-10046
1521	661	400	400	95081	-10001
1522	661	400	400	95081	-10001
1523	661	400	400	95081	-10001
1524	661	400	400	95139	-9958
1525	661	400	400	95139	-9958
1526	661	400	400	95139	-9958
1527	662	400	400	95199	-9915
1528	661	400	400	95199	-9915
1529	662	400	400	95199	-9915
1530	661	400	400	95255	-9915
1531	661	400	400	95255	-9870
1532	662	400	400	95255	-9870
1533	662	400	400	95311	-9870
1534	661	400	400	95311	-9823
1535	662	400	400	95311	-9823
1536	661	400	400	95361	-9823
1537	662	400	400	95361	-9779
1538	661	400	400	95361	-9779
1539	662	400	400	95414	-9779
1540	662	400	400	95414	-9736
1541	661	400	400	95414	-9736
1542	662	400	400	95469	-9736
1543	662	400	400	95469	-9694
1544	662	400	400	95469	-9694
1545	661	400	400	95525	-9694
1546	662	400	400	95525	-9658
1547	661	400	400	95525	-9658
1548	662	400	400	95578	-9658
1549	661	400	400	95578	-9621
1550	662	400	400	95578	-9621
1551	661	400	400	95632	-9621
1552	662	400	400	95632	-9578
1553	661	400	400	95632	-9578
1554	661	400	400	95683	-9578
1555	661	400	400	95683	-9533
1556	662	400	400	95683	-9533
1557	660	400	400	95733	-9533
1558	662	400	400	95733	-9489
1559	662	400	400	95733	-9489
1560	662	400	400	95783	-9489
1561	661	400	400	95783	-9440
1562	661	400	400	95783	-9440
1563	661	400	400	95838	-9440
1564	662	400	400	95838	-9393
1565	660	400	400	95838	-9393
1566	662	400	400	95893	-9393
1567	661	400	400	95893	-9350
1568	662	400	400	95893	-9350
1569	661	400	400	95946	-9350
1570	661	400	400	95946	-9309
1571	661	400	400	95946	-9309
1572	662	400	400	96001	-9309
1573	661	400	400	96001	-9269
1574	661	400	400	96001	-9269
1575	661	400	400	96049	-9269
1576	662	400	400	96049	-9228
1577	661	400	400	96049	-9228
1578	661	400	400	96099	-9228
1579	661	400	400	96099	-9182
1580	662	400	400	96099	-9182
1581	661	400	400	96154	-9182
1582	661	400	400	96154	-9130
1583	661	400	400	96154	-9130
1584	661	400	400	96207	-9130
1585	661	400	400	96207	-9086
1586	661	400	400	96207	-9086
1587	661	400	400	96207	-9086
1588	662	400	400	96263	-9042
1589	662	400	400	96263	-9042
1590	661	400	400	96263	-9042
1591	660	400	400	96318	-9000
1592	662	400	400	96318	-9000
1593	661	400	400	96318	-9000
1594	661	400	400	96369	-8966
1595	661	400	400	96369	-8966
1596	661	400	400	96369	-8966
1597	661	400	400	96417	-8930
1598	662	400	400	96417	-8930
1599	661	400	400	96417	-8930
1600	661	400	400	96464	-8890
1601	661	400	400	96464	-8890
1602	661	400	400	96464	-8890
1603	660	400	400	96523	-8849
1604	661	400	400	96523	-8849
1605	661	400	400	96523	-8849
1606	660	400	400	96579	-8810
1607	661	400	400	96579	-8810
1608	660	400	400	96579	-8810
1609	661	400	400	96635	-8767
1610	661	400	400	96635	-8767
1611	661	400	400	96635	-8767
1612	661	400	400	96691	-8722
1613	661	400	400	96691	-8722
1614	661	400	400	96691	-8722
1615	660	400	400	96738	-8684
1616	661	400	400	96738	-8684
1617	661	400	400	96738	-8684
1618	661	400	400	96787	-8648
1619	661	400	400	96787	-8648
1620	661	400	400	96787	-8648
1621	661	400	400	96839	-8614
1622	661	400	400	96839	-8614
1623	661	400	400	96839	-8614
1624	662	400	400	96890	-8576
1625	660	400	400	96890	-8576
1626	661	400	400	96890	-8576
1627	662	400	400	96945	-8532
1628	662	400	400	96945	-8532
1629	661	400	400	96945	-8532
1630	662	400	400	96995	-8482
1631	661	400	400	96995	-8482
1632	662	400	400	96995	-8482
1633	661	400	400	97042	-8435
1634	662	400	400	97042	-8435
1635	661	400	400	97042	-8435
1636	662	400	400	97086	-8388
1637	661	400	400	97086	-8388
1638	662	400	400	97086	-8388
1639	661	400	400	97134	-8340
1640	662	400	400	97134	-8340
1641	661	400	400	97134	-8340
1642	662	400	400	97190	-8300
1643	661	400	400	97190	-8300
1644	662	400	400	97190	-8300
1645	662	400	400	97246	-8261
1646	660	400	400	97246	-8261
1647	662	400	400	97246	-8261
1648	661	400	400	97300	-8218
1649	662	400	400	97300	-8218
1650	661	400	400	97300	-8218
1651	661	400	400	97355	-8171
1652	662	400	400	97355	-8171
1653	662	400	400	97355	-8171
1654	661	400	400	97402	-8171
1655	660	400	400	97402	-8124
1656	661	400	400	97402	-8124
1657	662	400	400	97451	-8124
1658	660	400	400	97451	-8077
1659	662	400	400	97451	-8077
1660	662	400	400	97503	-8077
1661	662	400	400	97503	-8029
1662	660	400	400	97503	-8029
1663	661	400	400	97556	-8029
1664	662	400	400	97556	-7985
1665	661	400	400	97556	-7985
1666	661	400	400	97607	-7985
1667	661	400	400	97607	-7946
1668	661	400	400	97607	-7946
1669	661	400	400	97658	-7946
1670	662	400	400	97658	-7908
1671	660	400	400	97658	-7908
1672	662	400	400	97708	-7908
1673	661	400	400	97708	-7869
1674	661	400	400	97708	-7869
1675	662	400	400	97754	-7869
1676	662	400	400	97754	-7827
1677	661	400	400	97754	-7827
1678	661	400	400	97801	-7827
1679	661	400	400	97801	-7784
1680	661	400	400	97801	-7784
1681	661	400	400	97850	-7784
1682	662	400	400	97850	-7743
1683	662	400	400	97850	-7743
1684	662	400	400	97902	-7743
1685	661	400	400	97902	-7702
1686	662	400	400	97902	-7702
1687	662	400	400	97953	-7702
1688	662	400	400	97953	-7661
1689	661	400	400	97953	-7661
1690	662	400	400	98002	-7661
1691	662	400	400	98002	-7625
1692	661	400	400	98002	-7625
1693	661	400	400	98049	-7625
1694	662	400	400	98049	-7594
1695	661	400	400	98049	-7594
1696	661	400	400	98092	-7594
1697	661	400	400	98092	-7558
1698	661	400	400	98092	-7558
1699	662	400	400	98137	-7558
1700	662	400	400	98137	-7514
1701	661	400	400	98137	-7514
1702	661	400	400	98189	-7514
1703	662	400	400	98189	-7470
1704	661	400	400	98189	-7470
1705	661	400	400	98189	-7470
1706	662	400	400	98241	-7424
1707	662	400	400	98241	-7424
1708	661	400	400	98241	-7424
1709	662	400	400	98295	-7375
1710	660	400	400	98295	-7375
1711	661	400	400	98295	-7375
1712	661	400	400	98349	-7331
1713	661	400	400	98349	-7331
1714	662	400	400	98349	-7331
1715	662	400	400	98398	-7292
1716	662	400	400	98398	-7292
1717	661	400	400	98398	-7292
1718	662	400	400	98442	-7257
1719	662	400	400	98442	-7257
1720	661	400	400	98442	-7257
1721	661	400	400	98487	-7219
1722	662	400	400	98487	-7219
1723	662	400	400	98487	-7219
1724	660	400	400	98535	-7182
1725	661	400	400	98535	-7182
1726	662	400	400	98535	-7182
1727	661	400	400	98590	-7138
1728	661	400	400	98590	-7138
1729	662	400	400	98590	-7138
1730	661	400	400	98639	-7090
1731	661	400	400	98639	-7090
1732	662	400	400	98639	-7090
1733	661	400	400	98686	-7045
1734	662	400	400	98686	-7045
1735	662	400	400	98686	-7045
1736	661	400	400	98733	-7001
1737	662	400	400	98733	-7001
1738	662	400	400	98733	-7001
1739	662	400	400	98771	-6960
1740	662	400	400	98771	-6960
1741	661	400	400	98771	-6960
1742	662	400	400	98811	-6927
1743	660	400	400	98811	-6927
1744	661	400	400	98811	-6927
1745	661	400	400	98858	-6894
1746	661	400	400	98858	-6894
1747	661	400	400	98858	-6894
1748	661	400	400	98904	-6856
1749	662	400	400	98904	-6856
1750	662	400	400	98904	-6856
1751	661	400	400	98950	-6816
1752	661	400	400	98950	-6816
1753	660	400	400	98950	-6816
1754	661	400	400	99001	-6777
1755	660	400	400	99001	-6777
1756	661	400	400	99001	-6777
1757	661	400	400	99048	-6736
1758	662	400	400	99048	-6736
1759	662	400	400	99048	-6736
1760	661	400	400	99093	-6690
1761	661	400	400	99093	-6690
1762	661	400	400	99093	-6690
1763	661	400	400	99134	-6651
1764	660	400	400	99134	-6651
1765	661	400	400	99134	-6651
1766	660	400	400	99178	-6617
1767	661	400	400	99178	-6617
1768	662	400	400	99178	-6617
1769	662	400	400	99226	-6586
1770	662	400	400	99226	-6586
1771	662	400	400	99226	-6586
1772	662	400	400	99277	-6586
1773	662	400	400	99277	-6551
1774	662	400	400	99277	-6551
1775	662	400	400	99325	-6551
1776	662	400	400	99325	-6513
1777	661	400	400	99325	-6513
1778	661	400	400	99374	-6513
1779	662	400	400	99374	-6471
1780	661	400	400	99374	-6471
1781	660	400	400	99419	-6471
1782	659	400	400	99419	-6426
1783	661	400	400	99419	-6426
1784	661	400	400	99459	-6426
1785	662	400	400	99459	-6380
1786	661	400	400	99459	-6380
1787	661	400	400	99503	-6380
1788	661	400	400	99503	-6337
1789	661	400	400	99503	-6337
1790	661	400	400	99552	-6337
1791	661	400	400	99552	-6294
1792	662	400	400	99552	-6294
1793	662	400	400	99602	-6294
1794	662	400	400	99602	-6257
1795	662	400	400	99602	-6257
1796	662	400	400	99650	-6257
1797	661	400	400	99650	-6223
1798	662	400	400	99650	-6223
1799	662	400	400	99700	-6223
1800	662	400	400	99700	-6183
1801	661	400	400	99700	-6183
1802	662	400	400	99750	-6183
1803	661	400	400	99750	-6139
1804	662	400	400	99750	-6139
1805	661	400	400	99793	-6139
1806	661	400	400	99793	-6093
1807	661	400	400	99793	-6093
1808	662	400	400	99834	-6093
1809	662	400	400	99834	-6047
1810	662	400	400	99834	-6047
1811	661	400	400	99877	-6047
1812	662	400	400	99877	-6003
1813	660	400	400	99877	-6003
1814	661	400	400	99924	-6003
1815	662	400	400	99924	-5961
1816	662	400	400	99924	-5961
1817	662	400	400	99971	-5961
1818	661	400	400	99971	-5921
1819	662	400	400	99971	-5921
1820	660	400	400	99971	-5921
1821	661	400	400	100015	-5886
1822	662	400	400	100015	-5886
1823	661	400	400	100015	-5886
1824	661	400	400	100059	-5851
1825	662	400	400	100059	-5851
1826	662	400	400	100059	-5851
1827	661	400	400	100102	-5815
1828	661	400	400	100102	-5815
1829	662	400	400	100102	-5815
1830	662	400	400	100139	-5777
1831	662	400	400	100139	-5777
1832	662	400	400	100139	-5777
1833	661	400	400	100178	-5736
1834	661	400	400	100178	-5736
1835	662	400	400	100178	-5736
1836	661	400	400	100223	-5697
1837	662	400	400	100223	-5697
1838	661	400	400	100223	-5697
1839	662	400	400	100271	-5661
1840	661	400	400	100271	-5661
1841	661	400	400	100271	-5661
1842	662	400	400	100318	-5627
1843	662	400	400	100318	-5627
1844	662	400	400	100318	-5627
1845	662	400	400	100367	-5594
1846	660	400	400	100367	-5594
1847	661	400	400	100367	-5594
1848	661	400	400	100413	-5567
1849	662	400	400	100413	-5567
1850	661	400	400	100413	-5567
1851	661	400	400	100456	-5539
1852	662	400	400	100456	-5539
1853	661	400	400	100456	-5539
1854	662	400	400	100489	-5507
1855	662	400	400	100489	-5507
1856	662	400	400	100489	-5507
1857	662	400	400	100526	-5468
1858	662	400	400	100526	-5468
1859	662	400	400	100526	-5468
1860	662	400	400	100565	-5428
1861	662	400	400	100565	-5428
1862	662	400	400	100565	-5428
1863	661	400	400	100610	-5389
1864	662	400	400	100610	-5389
1865	661	400	400	100610	-5389
1866	661	400	400	100659	-5347
1867	662	400	400	100659	-5347
1868	661	400	400	100659	-5347
1869	661	400	400	100702	-5309
1870	660	400	400	100702	-5309
1871	661	400	400	100702	-5309
1872	660	400	400	100745	-5273
1873	661	400	400	100745	-5273
1874	662	400	400	100745	-5273
1875	662	400	400	100785	-5241
1876	662	400	400	100785	-5241
1877	660	400	400	100785	-5241
1878	661	400	400	100819	-5211
1879	660	400	400	100819	-5211
1880	661	400	400	100819	-5211
1881	661	400	400	100855	-5178
1882	661	400	400	100855	-5178
1883	662	400	400	100855	-5178
1884	662	400	400	100896	-5145
1885	662	400	400	100896	-5145
1886	662	400	400	100896	-5145
1887	662	400	400	100936	-5110
1888	662	400	400	100936	-5110
1889	662	400	400	100936	-5110
1890	661	400	400	100977	-5110
1891	662	400	400	100977	-5067
1892	661	400	400	100977	-5067
1893	662	400	400	101022	-5067
1894	661	400	400	101022	-5024
1895	660	400	400	101022	-5024
1896	661	400	400	101064	-5024
1897	661	400	400	101064	-4984
1898	661	400	400	101064	-4984
1899	660	400	400	101104	-4984
1900	661	400	400	101104	-4946
1901	662	400	400	101104	-4946
1902	662	400	400	101140	-4946
1903	662	400	400	101140	-4912
1904	660	400	400	101140	-4912
1905	661	400	400	101172	-4912
1906	660	400	400	101172	-4885
1907	661	400	400	101172	-4885
1908	662	400	400	101206	-4885
1909	661	400	400	101206	-4861
1910	661	400	400	101206	-4861
1911	662	400	400	101243	-4861
1912	662	400	400	101243	-4832
1913	661	400	400	101243	-4832
1914	661	400	400	101289	-4832
1915	662	400	400	101289	-4802
1916	660	400	400	101289	-4802
1917	662	400	400	101334	-4802
1918	662	400	400	101334	-4767
1919	662	400	400	101334	-4767
1920	662	400	400	101376	-4767
1921	661	400	400	101376	-4735
1922	662	400	400	101376	-4735
1923	661	400	400	101420	-4735
1924	661	400	400	101420	-4702
1925	661	400	400	101420	-4702
1926	662	400	400	101461	-4702
1927	661	400	400	101461	-4666
1928	662	400	400	101461	-4666
1929	662	400	400	101497	-4666
1930	661	400	400	101497	-4631
1931	662	400	400	101497	-4631
1932	662	400	400	101533	-4631
1933	661	400	400	101533	-4598
1934	662	400	400	101533	-4598
1935	662	400	400	101533	-4598
1936	662	400	400	101571	-4570
1937	661	400	400	101571	-4570
1938	662	400	400	101571	-4570
1939	661	400	400	101614	-4546
1940	662	400	400	101614	-4546
1941	661	400	400	101614	-4546
1942	662	400	400	101657	-4520
1943	660	400	400	101657	-4520
1944	661	400	400	101657	-4520
1945	661	400	400	101699	-4490
1946	661	400	400	101699	-4490
1947	662	400	400	101699	-4490
1948	661	400	400	101741	-4456
1949	662	400	400	101741	-4456
1950	661	400	400	101741	-4456
1951	660	400	400	101780	-4419
1952	661	400	400	101780	-4419
1953	662	400	400	101780	-4419
1954	661	400	400	101814	-4377
1955	662	400	400	101814	-4377
1956	662	400	400	101814	-4377
1957	661	400	400	101842	-4336
1958	661	400	400	101842	-4336
1959	661	400	400	101842	-4336
1960	662	400	400	101873	-4299
1961	662	400	400	101873	-4299
1962	661	400	400	101873	-4299
1963	660	400	400	101906	-4262
1964	660	400	400	101906	-4262
1965	661	400	400	101906	-4262
1966	661	400	400	101941	-4230
1967	661	400	400	101941	-4230
1968	661	400	400	101941	-4230
1969	661	400	400	101980	-4205
1970	661	400	400	101980	-4205
1971	662	400	400	101980	-4205
1972	662	400	400	102017	-4179
1973	661	400	400	102017	-4179
1974	661	400	400	102017	-4179
1975	661	400	400	102052	-4148
1976	661	400	400	102052	-4148
1977	661	400	400	102052	-4148
1978	661	400	400	102086	-4112
1979	661	400	400	102086	-4112
1980	662	400	400	102086	-4112
1981	661	400	400	102122	-4074
1982	662	400	400	102122	-4074
1983	662	400	400	102122	-4074
1984	662	400	400	102152	-4037
1985	661	400	400	102152	-4037
1986	662	400	400	102152	-4037
1987	662	400	400	102181	-3999
1988	662	400	400	102181	-3999
1989	661	400	400	102181	-3999
1990	665	400	400	102209	-3960
1991	666	400	400	102209	-3960
1992	665	400	400	102209	-3960
1993	665	400	400	102243	-3923
1994	664	400	400	102243	-3923
1995	665	400	400	102243	-3923
1996	665	400	400	102283	-3890
1997	666	400	400	102283	-3890
1998	666	400	400	102283	-3890
1999	665	400	400	102323	-3864
2000	666	400	400	102323	-3864
2001	665	400	400	102323	-3864
2002	666	400	400	102365	-3842
2003	665	400	400	102365	-3842
2004	665	400	400	102365	-3842
2005	665	400	400	102409	-3819
2006	665	400	400	102409	-3819
2007	666	400	400	102409	-3819
2008	665	400	400	102450	-3819
2009	666	400	400	102450	-3793
2010	666	400	400	102450	-3793
2011	666	400	400	102490	-3793
2012	666	400	400	102490	-3766
2013	666	400	400	102490	-3766
2014	666	400	400	102524	-3766
2015	665	400	400	102524	-3736
2016	665	400	400	102524	-3736
2017	666	400	400	102558	-3736
2018	665	400	400	102558	-3705
2019	665	400	400	102558	-3705
2020	665	400	400	102592	-3705
2021	666	400	400	102592	-3672
2022	666	400	400	102592	-3672
2023	665	400	400	102633	-3672
2024	666	400	400	102633	-3640
2025	665	400	400	102633	-3640
2026	666	400	400	102679	-3640
2027	666	400	400	102679	-3609
2028	665	400	400	102679	-3609
2029	665	400	400	102722	-3609
2030	666	400	400	102722	-3581
2031	666	400	400	102722	-3581
2032	665	400	400	102764	-3581
2033	665	400	400	102764	-3551
2034	666	400	400	102764	-3551
2035	666	400	400	102804	-3551
2036	666	400	400	102804	-3528
2037	666	400	400	102804	-3528
2038	666	400	400	102838	-3528
2039	665	400	400	102838	-3506
2040	664	400	400	102838	-3506
2041	665	400	400	102867	-3506
2042	666	400	400	102867	-3480
2043	666	400	400	102867	-3480
2044	665	400	400	102898	-3480
2045	666	400	400	102898	-3451
2046	665	400	400	102898	-3451
2047	666	400	400	102931	-3451
2048	666	400	400	102931	-3417
2049	666	400	400	102931	-3417
2050	666	400	400	102968	-3417
2051	665	400	400	102968	-3382
2052	666	400	400	102968	-3382
2053	666	400	400	102968	-3382
2054	665	400	400	103006	-3347
2055	666	400	400	103006	-3347
2056	666	400	400	103006	-3347
2057	665	400	400	103044	-3310
2058	666	400	400	103044	-3310
2059	666	400	400	103044	-3310
2060	665	400	400	103087	-3272
2061	665	400	400	103087	-3272
2062	666	400	400	103087	-3272
2063	665	400	400	103124	-3240
2064	666	400	400	103124	-3240
2065	666	400	400	103124	-3240
2066	665	400	400	103159	-3214
2067	666	400	400	103159	-3214
2068	665	400	400	103159	-3214
2069	666	400	400	103192	-3191
2070	665	400	400	103192	-3191
2071	665	400	400	103192	-3191
2072	665	400	400	103221	-3169
2073	665	400	400	103221	-3169
2074	665	400	400	103221	-3169
2075	665	400	400	103253	-3144
2076	664	400	400	103253	-3144
2077	665	400	400	103253	-3144
2078	664	400	400	103289	-3116
2079	665	400	400	103289	-3116
2080	665	400	400	103289	-3116
2081	665	400	400	103331	-3086
2082	665	400	400	103331	-3086
2083	666	400	400	103331	-3086
2084	666	400	400	103373	-3055
2085	666	400	400	103373	-3055
2086	666	400	400	103373	-3055
2087	666	400	400	103414	-3018
2088	666	400	400	103414	-3018
2089	665	400	400	103414	-3018
2090	666	400	400	103455	-2982
2091	664	400	400	103455	-2982
2092	665	400	400	103455	-2982
2093	665	400	400	103493	-2948
2094	665	400	400	103493	-2948
2095	664	400	400	103493	-2948
2096	666	400	400	103524	-2915
2097	664	400	400	103524	-2915
2098	665	400	400	103524	-2915
2099	664	400	400	103553	-2883
2100	666	400	400	103553	-2883
2101	666	400	400	103553	-2883
2102	665	400	400	103586	-2854
2103	666	400	400	103586	-2854
2104	666	400	400	103586	-2854
2105	666	400	400	103623	-2833
2106	666	400	400	103623	-2833
2107	666	400	400	103623	-2833
2108	666	400	400	103665	-2811
2109	666	400	400	103665	-2811
2110	666	400	400	103665	-2811
2111	666	400	400	103707	-2786
2112	666	400	400	103707	-2786
2113	666	400	400	103707	-2786
2114	666	400	400	103745	-2759
2115	666	400	400	103745	-2759
2116	666	400	400	103745	-2759
2117	666	400	400	103783	-2728
2118	666	400	400	103783	-2728
2119	666	400	400	103783	-2728
2120	666	400	400	103821	-2700
2121	664	400	400	103821	-2700
2122	665	400	400	103821	-2700
2123	666	400	400	103855	-2700
2124	666	400	400	103855	-2668
2125	665	400	400	103855	-2668
2126	665	400	400	103882	-2668
2127	666	400	400	103882	-2634
2128	665	400	400	103882	-2634
2129	666	400	400	103908	-2634
2130	666	400	400	103908	-2600
2131	666	400	400	103908	-2600
2132	664	400	400	103936	-2600
2133	665	400	400	103936	-2571
2134	666	400	400	103936	-2571
2135	666	400	400	103970	-2571
2136	665	400	400	103970	-2547
2137	666	400	400	103970	-2547
2138	666	400	400	104005	-2547
2139	665	400	400	104005	-2526
2140	665	400	400	104005	-2526
2141	666	400	400	104045	-2526
2142	665	400	400	104045	-2506
2143	665	400	400	104045	-2506
2144	666	400	400	104081	-2506
2145	666	400	400	104081	-2489
2146	665	400	400	104081	-2489
2147	665	400	400	104116	-2489
2148	666	400	400	104116	-2465
2149	665	400	400	104116	-2465
2150	665	400	400	104150	-2465
2151	666	400	400	104150	-2439
2152	666	400	400	104150	-2439
2153	666	400	400	104183	-2439
2154	665	400	400	104183	-2410
2155	666	400	400	104183	-2410
2156	665	400	400	104207	-2410
2157	665	400	400	104207	-2379
2158	666	400	400	104207	-2379
2159	666	400	400	104232	-2379
2160	666	400	400	104232	-2344
2161	665	400	400	104232	-2344
2162	666	400	400	104258	-2344
2163	664	400	400	104258	-2309
2164	664	400	400	104258	-2309
2165	666	400	400	104292	-2309
2166	666	400	400	104292	-2274
2167	666	400	400	104292	-2274
2168	666	400	400	104329	-2274
2169	666	400	400	104329	-2239
2170	665	400	400	104329	-2239
2171	665	400	400	104366	-2239
2172	666	400	400	104366	-2205
2173	666	400	400	104366	-2205
2174	666	400	400	104403	-2205
2175	666	400	400	104403	-2176
2176	664	400	400	104403	-2176
2177	665	400	400	104403	-2176
2178	666	400	400	104440	-2152
2179	665	400	400	104440	-2152
2180	666	400	400	104440	-2152
2181	665	400	400	104476	-2126
2182	666	400	400	104476	-2126
2183	666	400	400	104476	-2126
2184	666	400	400	104508	-2094
2185	665	400	400	104508	-2094
2186	666	400	400	104508	-2094
2187	666	400	400	104537	-2061
2188	665	400	400	104537	-2061
2189	666	400	400	104537	-2061
2190	665	400	400	104561	-2025
2191	666	400	400	104561	-2025
2192	665	400	400	104561	-2025
2193	666	400	400	104586	-1988
2194	666	400	400	104586	-1988
2195	666	400	400	104586	-1988
2196	665	400	400	104615	-1950
2197	666	400	400	104615	-1950
2198	665	400	400	104615	-1950
2199	666	400	400	104644	-1914
2200	666	400	400	104644	-1914
2201	665	400	400	104644	-1914
2202	665	400	400	104680	-1880
2203	666	400	400	104680	-1880
2204	665	400	400	104680	-1880
2205	665	400	400	104721	-1850
2206	664	400	400	104721	-1850
2207	665	400	400	104721	-1850
2208	666	400	400	104760	-1824
2209	665	400	400	104760	-1824
2210	665	400	400	104760	-1824
2211	665	400	400	104796	-1802
2212	666	400	400	104796	-1802
2213	666	400	400	104796	-1802
2214	666	400	400	104830	-1780
2215	665	400	400	104830	-1780
2216	665	400	400	104830	-1780
2217	666	400	400	104866	-1755
2218	666	400	400	104866	-1755
2219	666	400	400	104866	-1755
2220	666	400	400	104891	-1730
2221	666	400	400	104891	-1730
2222	666	400	400	104891	-1730
2223	665	400	400	104916	-1703
2224	666	400	400	104916	-1703
2225	665	400	400	104916	-1703
2226	666	400	400	104946	-1676
2227	666	400	400	104946	-1676
2228	665	400	400	104946	-1676
2229	665	400	400	104980	-1645
2230	665	400	400	104980	-1645
2231	666	400	400	104980	-1645
2232	666	400	400	105015	-1616
2233	666	400	400	105015	-1616
2234	665	400	400	105015	-1616
2235	666	400	400	105052	-1587
2236	665	400	400	105052	-1587
2237	666	400	400	105052	-1587
2238	666	400	400	105087	-1557
2239	666	400	400	105087	-1557
2240	665	400	400	105087	-1557
2241	666	400	400	105128	-1557
2242	666	400	400	105128	-1530
2243	666	400	400	105128	-1530
2244	666	400	400	105164	-1530
2245	666	400	400	105164	-1505
2246	665	400	400	105164	-1505
2247	666	400	400	105197	-1505
2248	665	400	400	105197	-1488
2249	666	400	400	105197	-1488
2250	666	400	400	105224	-1488
2251	666	400	400	105224	-1474
2252	666	400	400	105224	-1474
2253	666	400	400	105246	-1474
2254	666	400	400	105246	-1458
2255	666	400	400	105246	-1458
2256	666	400	400	105270	-1458
2257	666	400	400	105270	-1440
2258	666	400	400	105270	-1440
2259	666	400	400	105298	-1440
2260	666	400	400	105298	-1418
2261	666	400	400	105298	-1418
2262	666	400	400	105330	-1418
2263	666	400	400	105330	-1391
2264	665	400	400	105330	-1391
2265	666	400	400	105368	-1391
2266	665	400	400	105368	-1362
2267	664	400	400	105368	-1362
2268	665	400	400	105408	-1362
2269	665	400	400	105408	-1332
2270	665	400	400	105408	-1332
2271	666	400	400	105448	-1332
2272	666	400	400	105448	-1302
2273	666	400	400	105448	-1302
2274	666	400	400	105486	-1302
2275	665	400	400	105486	-1272
2276	665	400	400	105486	-1272
2277	666	400	400	105524	-1272
2278	666	400	400	105524	-1240
2279	666	400	400	105524	-1240
2280	666	400	400	105556	-1240
2281	665	400	400	105556	-1208
2282	666	400	400	105556	-1208
2283	666	400	400	105583	-1208
2284	666	400	400	105583	-1183
2285	666	400	400	105583	-1183
2286	665	400	400	105612	-1183
2287	666	400	400	105612	-1160
2288	666	400	400	105612	-1160
2289	666	400	400	105646	-1160
2290	665	400	400	105646	-1142
2291	666	400	400	105646	-1142
2292	666	400	400	105682	-1142
2293	666	400	400	105682	-1123
2294	666	400	400	105682	-1123
2295	665	400	400	105682	-1123
2296	665	400	400	105721	-1102
2297	666	400	400	105721	-1102
2298	666	400	400	105721	-1102
2299	666	400	400	105762	-1077
2300	666	400	400	105762	-1077
2301	666	400	400	105762	-1077
2302	666	400	400	105799	-1049
2303	665	400	400	105799	-1049
2304	665	400	400	105799	-1049
2305	666	400	400	105836	-1021
2306	666	400	400	105836	-1021
2307	665	400	400	105836	-1021
2308	666	400	400	105869	-987
2309	666	400	400	105869	-987
2310	666	400	400	105869	-987
2311	665	400	400	105900	-951
2312	666	400	400	105900	-951
2313	665	400	400	105900	-951
2314	666	400	400	105924	-916
2315	666	400	400	105924	-916
2316	666	400	400	105924	-916
2317	665	400	400	105943	-882
2318	666	400	400	105943	-882
2319	666	400	400	105943	-882
2320	665	400	400	105966	-850
2321	666	400	400	105966	-850
2322	665	400	400	105966	-850
2323	666	400	400	105992	-823
2324	666	400	400	105992	-823
2325	664	400	400	105992	-823
2326	665	400	400	106022	-801
2327	665	400	400	106022	-801
2328	666	400	400	106022	-801
2329	666	400	400	106052	-787
2330	665	400	400	106052	-787
2331	666	400	400	106052	-787
2332	665	400	400	106088	-772
2333	666	400	400	106088	-772
2334	666	400	400	106088	-772
2335	665	400	400	106120	-754
2336	666	400	400	106120	-754
2337	666	400	400	106120	-754
2338	666	400	400	106151	-733
2339	665	400	400	106151	-733
2340	665	400	400	106151	-733
2341	665	400	400	106178	-707
2342	665	400	400	106178	-707
2343	665	400	400	106178	-707
2344	666	400	400	106207	-678
2345	665	400	400	106207	-678
2346	665	400	400	106207	-678
2347	665	400	400	106233	-652
2348	665	400	400	106233	-652
2349	665	400	400	106233	-652
2350	665	400	400	106255	-627
2351	666	400	400	106255	-627
2352	665	400	400	106255	-627
2353	665	400	400	106275	-601
2354	665	400	400	106275	-601
2355	665	400	400	106275	-601
2356	666	400	400	106294	-601
2357	665	400	400	106294	-573
2358	666	400	400	106294	-573
2359	665	400	400	106317	-573
2360	666	400	400	106317	-544
2361	666	400	400	106317	-544
2362	665	400	400	106346	-544
2363	666	400	400	106346	-521
2364	666	400	400	106346	-521
2365	666	400	400	106379	-521
2366	666	400	400	106379	-502
2367	666	400	400	106379	-502
2368	665	400	400	106413	-502
2369	666	400	400	106413	-485
2370	665	400	400	106413	-485
2371	665	400	400	106447	-485
2372	665	400	400	106447	-470
2373	666	400	400	106447	-470
2374	666	400	400	106482	-470
2375	666	400	400	106482	-455
2376	666	400	400	106482	-455
2377	666	400	400	106514	-455
2378	666	400	400	106514	-441
2379	666	400	400	106514	-441
2380	666	400	400	106545	-441
2381	666	400	400	106545	-419
2382	666	400	400	106545	-419
2383	665	400	400	106573	-419
2384	666	400	400	106573	-397
2385	666	400	400	106573	-397
2386	666	400	400	106599	-397
2387	666	400	400	106599	-372
2388	666	400	400	106599	-372
2389	666	400	400	106620	-372
2390	665	400	400	106620	-343
2391	666	400	400	106620	-343
2392	666	400	400	106640	-343
2393	666	400	400	106640	-311
2394	665	400	400	106640	-311
2395	666	400	400	106666	-311
2396	666	400	400	106666	-276
2397	666	400	400	106666	-276
2398	666	400	400	106692	-276
2399	665	400	400	106692	-242
2400	665	400	400	106692	-242
2401	666	400	400	106724	-242
2402	666	400	400	106724	-208
2403	665	400	400	106724	-208
2404	665	400	400	106759	-208
2405	666	400	400	106759	-175
2406	665	400	400	106759	-175
2407	665	400	400	106794	-175
2408	664	400	400	106794	-147
2409	666	400	400	106794	-147
2410	666	400	400	106822	-147
2411	664	400	400	106822	-124
2412	666	400	400	106822	-124
2413	665	400	400	106822	-124
2414	665	400	400	106852	-106
2415	666	400	400	106852	-106
2416	665	400	400	106852	-106
2417	666	400	400	106881	-84
2418	665	400	400	106881	-84
2419	666	400	400	106881	-84
2420	665	400	400	106912	-59
2421	666	400	400	106912	-59
2422	666	400	400	106912	-59
2423	666	400	400	106932	-30
2424	665	400	400	106932	-30
2425	666	400	400	106932	-30
2426	666	400	400	106948	0
2427	666	400	400	106948	0
2428	666	400	400	106948	0
2429	666	400	400	106967	32
2430	665	400	400	106967	32
2431	666	400	400	106967	32
2432	666	400	400	106983	63
2433	665	400	400	106983	63
2434	666	400	400	106983	63
2435	666	400	400	107003	96
2436	666	400	400	107003	96
2437	665	400	400	107003	96
2438	666	400	400	107030	126
2439	665	400	400	107030	126
2440	666	400	400	107030	126
2441	665	400	400	107058	156
2442	666	400	400	107058	156
2443	666	400	400	107058	156
2444	666	400	400	107086	184
2445	666	400	400	107086	184
2446	666	400	400	107086	184
2447	666	400	400	107115	210
2448	666	400	400	107115	210
2449	666	400	400	107115	210
2450	666	400	400	107145	231
2451	666	400	400	107145	231
2452	666	400	400	107145	231
2453	666	400	400	107174	248
2454	666	400	400	107174	248
2455	666	400	400	107174	248
2456	666	400	400	107203	265
2457	666	400	400	107203	265
2458	665	400	400	107203	265
2459	666	400	400	107230	285
2460	666	400	400	107230	285
2461	667	400	400	107230	285
2462	666	400	400	107254	302
2463	666	400	400	107254	302
2464	665	400	400	107254	302
2465	666	400	400	107274	322
2466	666	400	400	107274	322
2467	666	400	400	107274	322
2468	666	400	400	107291	345
2469	666	400	400	107291	345
2470	666	400	400	107291	345
2471	666	400	400	107308	370
2472	666	400	400	107308	370
2473	666	400	400	107308	370
2474	665	400	400	107329	370
2475	666	400	400	107329	396
2476	665	400	400	107329	396
2477	665	400	400	107355	396
2478	666	400	400	107355	425
2479	666	400	400	107355	425
2480	666	400	400	107383	425
2481	665	400	400	107383	453
2482	665	400	400	107383	453
2483	665	400	400	107417	453
2484	666	400	400	107417	477
2485	666	400	400	107417	477
2486	666	400	400	107451	477
2487	666	400	400	107451	499
2488	665	400	400	107451	499
2489	665	400	400	107485	499
2490	665	400	400	107485	520
2491	665	400	400	107485	520
2492	665	400	400	107517	520
2493	665	400	400	107517	538
2494	665	400	400	107517	538
2495	665	400	400	107552	538
2496	665	400	400	107552	552
2497	666	400	400	107552	552
2498	665	400	400	107584	552
2499	665	400	400	107584	564
2500	665	400	400	107584	564
2501	666	400	400	107608	564
2502	665	400	400	107608	574
2503	666	400	400	107608	574
2504	665	400	400	107627	574
2505	665	400	400	107627	589
2506	665	400	400	107627	589
2507	666	400	400	107647	589
2508	666	400	400	107647	607
2509	665	400	400	107647	607
2510	665	400	400	107671	607
2511	666	400	400	107671	629
2512	666	400	400	107671	629
2513	665	400	400	107696	629
2514	666	400	400	107696	653
2515	665	400	400	107696	653
2516	666	400	400	107724	653
2517	666	400	400	107724	679
2518	664	400	400	107724	679
2519	664	400	400	107756	679
2520	666	400	400	107756	706
2521	666	400	400	107756	706
2522	665	400	400	107788	706
2523	666	400	400	107788	730
2524	666	400	400	107788	730
2525	666	400	400	107819	730
2526	665	400	400	107819	756
2527	665	400	400	107819	756
2528	666	400	400	107849	756
2529	666	400	400	107849	784
2530	665	400	400	107849	784
2531	666	400	400	107849	784
2532	665	400	400	107880	813
2533	666	400	400	107880	813
2534	666	400	400	107880	813
2535	666	400	400	107909	838
2536	665	400	400	107909	838
2537	666	400	400	107909	838
2538	665	400	400	107936	862
2539	665	400	400	107936	862
2540	665	400	400	107936	862
2541	666	400	400	107958	881
2542	666	400	400	107958	881
2543	665	400	400	107958	881
2544	665	400	400	107975	895
2545	666	400	400	107975	895
2546	666	400	400	107975	895
2547	664	400	400	107991	905
2548	666	400	400	107991	905
2549	666	400	400	107991	905
2550	666	400	400	108014	917
2551	666	400	400	108014	917
2552	665	400	400	108014	917
2553	666	400	400	108037	931
2554	666	400	400	108037	931
2555	666	400	400	108037	931
2556	665	400	400	108066	948
2557	666	400	400	108066	948
2558	665	400	400	108066	948
2559	665	400	400	108094	968
2560	666	400	400	108094	968
2561	665	400	400	108094	968
2562	666	400	400	108127	990
2563	665	400	400	108127	990
2564	666	400	400	108127	990
2565	666	400	400	108158	1011
2566	665	400	400	108158	1011
2567	666	400	400	108158	1011
2568	666	400	400	108190	1038
2569	666	400	400	108190	1038
2570	666	400	400	108190	1038
2571	665	400	400	108219	1068
2572	666	400	400	108219	1068
2573	666	400	400	108219	1068
2574	666	400	400	108248	1100
2575	665	400	400	108248	1100
2576	666	400	400	108248	1100
2577	666	400	400	108275	1130
2578	666	400	400	108275	1130
2579	666	400	400	108275	1130
2580	666	400	400	108294	1157
2581	665	400	400	108294	1157
2582	666	400	400	108294	1157
2583	666	400	400	108312	1182
2584	665	400	400	108312	1182
2585	666	400	400	108312	1182
2586	666	400	400	108329	1206
2587	666	400	400	108329	1206
2588	666	400	400	108329	1206
2589	666	400	400	108349	1226
2590	666	400	400	108349	1226
2591	666	400	400	108349	1226
2592	666	400	400	108372	1243
2593	665	400	400	108372	1243
2594	666	400	400	108372	1243
2595	666	400	400	108401	1254
2596	666	400	400	108401	1254
2597	665	400	400	108401	1254
2598	666	400	400	108431	1254
2599	666	400	400	108431	1265
2600	666	400	400	108431	1265
2601	666	400	400	108461	1265
2602	666	400	400	108461	1276
2603	665	400	400	108461	1276
2604	666	400	400	108492	1276
2605	666	400	400	108492	1289
2606	666	400	400	108492	1289
2607	665	400	400	108523	1289
2608	666	400	400	108523	1304
2609	665	400	400	108523	1304
2610	666	400	400	108552	1304
2611	665	400	400	108552	1322
2612	666	400	400	108552	1322
2613	665	400	400	108580	1322
2614	665	400	400	108580	1342
2615	666	400	400	108580	1342
2616	666	400	400	108604	1342
2617	665	400	400	108604	1361
2618	666	400	400	108604	1361
2619	666	400	400	108626	1361
2620	666	400	400	108626	1383
2621	666	400	400	108626	1383
2622	666	400	400	108646	1383
2623	666	400	400	108646	1404
2624	666	400	400	108646	1404
2625	665	400	400	108660	1404
2626	666	400	400	108660	1428
2627	666	400	400	108660	1428
2628	665	400	400	108675	1428
2629	665	400	400	108675	1454
2630	665	400	400	108675	1454
2631	666	400	400	108697	1454
2632	665	400	400	108697	1481
2633	666	400	400	108697	1481
2634	666	400	400	108720	1481
2635	666	400	400	108720	1509
2636	665	400	400	108720	1509
2637	665	400	400	108744	1509
2638	666	400	400	108744	1529
2639	666	400	400	108744	1529
2640	664	400	400	108774	1529
2641	666	400	400	108774	1548
2642	665	400	400	108774	1548
2643	665	400	400	108805	1548
2644	665	400	400	108805	1564
2645	666	400	400	108805	1564
2646	665	400	400	108839	1564
2647	666	400	400	108839	1577
2648	666	400	400	108839	1577
2649	666	400	400	108839	1577
2650	665	400	400	108865	1589
2651	666	400	400	108865	1589
2652	666	400	400	108865	1589
2653	665	400	400	108890	1597
2654	665	400	400	108890	1597
2655	665	400	400	108890	1597
2656	666	400	400	108914	1610
2657	666	400	400	108914	1610
2658	666	400	400	108914	1610
2659	665	400	400	108936	1628
2660	666	400	400	108936	1628
2661	665	400	400	108936	1628
2662	666	400	400	108956	1647
2663	666	400	400	108956	1647
2664	666	400	400	108956	1647
2665	666	400	400	108971	1667
2666	666	400	400	108971	1667
2667	666	400	400	108971	1667
2668	666	400	400	108979	1690
2669	666	400	400	108979	1690
2670	666	400	400	108979	1690
2671	665	400	400	108987	1715
2672	666	400	400	108987	1715
2673	666	400	400	108987	1715
2674	666	400	400	108995	1743
2675	666	400	400	108995	1743
2676	666	400	400	108995	1743
2677	666	400	400	109003	1773
2678	665	400	400	109003	1773
2679	666	400	400	109003	1773
2680	666	400	400	109010	1802
2681	666	400	400	109010	1802
2682	666	400	400	109010	1802
2683	665	400	400	109018	1827
2684	666	400	400	109018	1827
2685	666	400	400	109018	1827
2686	665	400	400	109029	1852
2687	666	400	400	109029	1852
2688	666	400	400	109029	1852
2689	666	400	400	109042	1875
2690	666	400	400	109042	1875
2691	666	400	400	109042	1875
2692	666	400	400	109058	1895
2693	666	400	400	109058	1895
2694	666	400	400	109058	1895
2695	666	400	400	109078	1914
2696	666	400	400	109078	1914
2697	666	400	400	109078	1914
2698	666	400	400	109098	1926
2699	666	400	400	109098	1926
2700	666	400	400	109098	1926
2701	664	400	400	109118	1937
2702	665	400	400	109118	1937
2703	665	400	400	109118	1937
2704	666	400	400	109137	1951
2705	666	400	400	109137	1951
2706	666	400	400	109137	1951
2707	665	400	400	109159	1966
2708	665	400	400	109159	1966
2709	666	400	400	109159	1966
2710	666	400	400	109182	1985
2711	666	400	400	109182	1985
2712	665	400	400	109182	1985
2713	666	400	400	109204	2005
2714	665	400	400	109204	2005
2715	665	400	400	109204	2005
2716	665	400	400	109225	2005
2717	666	400	400	109225	2029
2718	665	400	400	109225	2029
2719	665	400	400	109244	2029
2720	665	400	400	109244	2053
2721	666	400	400	109244	2053
2722	665	400	400	109262	2053
2723	666	400	400	109262	2079
2724	665	400	400	109262	2079
2725	665	400	400	109280	2079
2726	666	400	400	109280	2106
2727	664	400	400	109280	2106
2728	665	400	400	109295	2106
2729	665	400	400	109295	2135
2730	666	400	400	109295	2135
2731	665	400	400	109307	2135
2732	666	400	400	109307	2163
2733	666	400	400	109307	2163
2734	666	400	400	109316	2163
2735	666	400	400	109316	2189
2736	666	400	400	109316	2189
2737	666	400	400	109325	2189
2738	666	400	400	109325	2213
2739	666	400	400	109325	2213
2740	666	400	400	109331	2213
2741	666	400	400	109331	2233
2742	666	400	400	109331	2233
2743	665	400	400	109335	2233
2744	665	400	400	109335	2251
2745	665	400	400	109335	2251
2746	665	400	400	109339	2251
2747	664	400	400	109339	2267
2748	666	400	400	109339	2267
2749	665	400	400	109343	2267
2750	665	400	400	109343	2279
2751	665	400	400	109343	2279
2752	666	400	400	109355	2279
2753	665	400	400	109355	2287
2754	666	400	400	109355	2287
2755	665	400	400	109368	2287
2756	666	400	400	109368	2298
2757	666	400	400	109368	2298
2758	666	400	400	109383	2298
2759	666	400	400	109383	2309
2760	664	400	400	109383	2309
2761	665	400	400	109402	2309
2762	665	400	400	109402	2324
2763	666	400	400	109402	2324
2764	666	400	400	109422	2324
2765	666	400	400	109422	2337
2766	666	400	400	109422	2337
2767	666	400	400	109422	2337
2768	665	400	400	109446	2352
2769	666	400	400	109446	2352
2770	666	400	400	109446	2352
2771	665	400	400	109476	2372
2772	665	400	400	109476	2372
2773	666	400	400	109476	2372
2774	666	400	400	109505	2392
2775	666	400	400	109505	2392
2776	664	400	400	109505	2392
2777	666	400	400	109533	2412
2778	664	400	400	109533	2412
2779	666	400	400	109533	2412
2780	666	400	400	109556	2434
2781	666	400	400	109556	2434
2782	665	400	400	109556	2434
2783	665	400	400	109580	2457
2784	666	400	400	109580	2457
2785	665	400	400	109580	2457
2786	665	400	400	109603	2478
2787	666	400	400	109603	2478
2788	665	400	400	109603	2478
2789	664	400	400	109624	2497
2790	666	400	400	109624	2497
2791	666	400	400	109624	2497
2792	665	400	400	109642	2513
2793	664	400	400	109642	2513
2794	666	400	400	109642	2513
2795	666	400	400	109652	2530
2796	666	400	400	109652	2530
2797	665	400	400	109652	2530
2798	666	400	400	109660	2546
2799	665	400	400	109660	2546
2800	665	400	400	109660	2546
2801	665	400	400	109669	2561
2802	666	400	400	109669	2561
2803	665	400	400	109669	2561
2804	665	400	400	109680	2571
2805	666	400	400	109680	2571
2806	666	400	400	109680	2571
2807	665	400	400	109695	2581
2808	665	400	400	109695	2581
2809	666	400	400	109695	2581
2810	666	400	400	109708	2589
2811	666	400	400	109708	2589
2812	666	400	400	109708	2589
2813	666	400	400	109723	2595
2814	665	400	400	109723	2595
2815	665	400	400	109723	2595
2816	666	400	400	109742	2600
2817	666	400	400	109742	2600
2818	666	400	400	109742	2600
2819	666	400	400	109762	2604
2820	666	400	400	109762	2604
2821	666	400	400	109762	2604
2822	666	400	400	109786	2607
2823	666	400	400	109786	2607
2824	666	400	400	109786	2607
2825	666	400	400	109810	2609
2826	666	400	400	109810	2609
2827	664	400	400	109810	2609
2828	665	400	400	109836	2611
2829	664	400	400	109836	2611
2830	666	400	400	109836	2611
2831	665	400	400	109863	2612
2832	666	400	400	109863	2612
2833	666	400	400	109863	2612
2834	665	400	400	109887	2612
2835	666	400	400	109887	2614
2836	665	400	400	109887	2614
2837	665	400	400	109911	2614
2838	665	400	400	109911	2618
2839	666	400	400	109911	2618
2840	665	400	400	109936	2618
2841	666	400	400	109936	2624
2842	666	400	400	109936	2624
2843	666	400	400	109959	2624
2844	666	400	400	109959	2632
2845	666	400	400	109959	2632
2846	666	400	400	109982	2632
2847	666	400	400	109982	2642
2848	666	400	400	109982	2642
2849	666	400	400	110001	2642
2850	666	400	400	110001	2654
2851	665	400	400	110001	2654
2852	665	400	400	110014	2654
2853	665	400	400	110014	2668
2854	665	400	400	110014	2668
2855	665	400	400	110024	2668
2856	665	400	400	110024	2682
2857	666	400	400	110024	2682
2858	666	400	400	110031	2682
2859	666	400	400	110031	2698
2860	666	400	400	110031	2698
2861	665	400	400	110044	2698
2862	666	400	400	110044	2719
2863	665	400	400	110044	2719
2864	665	400	400	110059	2719
2865	665	400	400	110059	2739
2866	665	400	400	110059	2739
2867	665	400	400	110074	2739
2868	666	400	400	110074	2759
2869	665	400	400	110074	2759
2870	666	400	400	110092	2759
2871	665	400	400	110092	2781
2872	665	400	400	110092	2781
2873	666	400	400	110112	2781
2874	665	400	400	110112	2805
2875	665	400	400	110112	2805
2876	666	400	400	110132	2805
2877	666	400	400	110132	2831
2878	666	400	400	110132	2831
2879	665	400	400	110155	2831
2880	666	400	400	110155	2854
2881	665	400	400	110155	2854
2882	666	400	400	110155	2854
2883	666	400	400	110178	2873
2884	666	400	400	110178	2873
2885	666	400	400	110178	2873
2886	666	400	400	110200	2891
2887	666	400	400	110200	2891
2888	664	400	400	110200	2891
2889	665	400	400	110221	2908
2890	666	400	400	110221	2908
2891	666	400	400	110221	2908
2892	666	400	400	110240	2920
2893	666	400	400	110240	2920
2894	666	400	400	110240	2920
2895	665	400	400	110257	2930
2896	665	400	400	110257	2930
2897	666	400	400	110257	2930
2898	666	400	400	110274	2940
2899	666	400	400	110274	2940
2900	665	400	400	110274	2940
2901	666	400	400	110290	2947
2902	665	400	400	110290	2947
2903	666	400	400	110290	2947
2904	666	400	400	110305	2953
2905	665	400	400	110305	2953
2906	665	400	400	110305	2953
2907	666	400	400	110320	2960
2908	666	400	400	110320	2960
2909	666	400	400	110320	2960
2910	664	400	400	110332	2969
2911	664	400	400	110332	2969
2912	666	400	400	110332	2969
2913	666	400	400	110340	2980
2914	666	400	400	110340	2980
2915	666	400	400	110340	2980
2916	666	400	400	110350	2993
2917	666	400	400	110350	2993
2918	665	400	400	110350	2993
2919	666	400	400	110361	3010
2920	666	400	400	110361	3010
2921	666	400	400	110361	3010
2922	666	400	400	110373	3027
2923	666	400	400	110373	3027
2924	666	400	400	110373	3027
2925	666	400	400	110387	3043
2926	666	400	400	110387	3043
2927	666	400	400	110387	3043
2928	665	400	400	110404	3061
2929	665	400	400	110404	3061
2930	665	400	400	110404	3061
2931	665	400	400	110423	3082
2932	665	400	400	110423	3082
2933	666	400	400	110423	3082
2934	665	400	400	110447	3103
2935	666	400	400	110447	3103
2936	666	400	400	110447	3103
2937	666	400	400	110472	3126
2938	665	400	400	110472	3126
2939	665	400	400	110472	3126
2940	665	400	400	110500	3145
2941	665	400	400	110500	3145
2942	665	400	400	110500	3145
2943	665	400	400	110526	3166
2944	666	400	400	110526	3166
2945	666	400	400	110526	3166
2946	666	400	400	110554	3185
2947	666	400	400	110554	3185
2948	666	400	400	110554	3185
2949	666	400	400	110582	3204
2950	666	400	400	110582	3204
2951	666	400	400	110582	3204
2952	666	400	400	110607	3204
2953	666	400	400	110607	3220
2954	665	400	400	110607	3220
2955	666	400	400	110632	3220
2956	665	400	400	110632	3236
2957	665	400	400	110632	3236
2958	665	400	400	110653	3236
2959	665	400	400	110653	3250
2960	665	400	400	110653	3250
2961	665	400	400	110672	3250
2962	666	400	400	110672	3260
2963	666	400	400	110672	3260
2964	666	400	400	110689	3260
2965	666	400	400	110689	3268
2966	666	400	400	110689	3268
2967	666	400	400	110700	3268
2968	665	400	400	110700	3276
2969	667	400	400	110700	3276
2970	669	400	400	110710	3276
2971	669	400	400	110710	3282
2972	669	400	400	110710	3282
2973	670	400	400	110726	3282
2974	670	400	400	110726	3288
2975	671	400	400	110726	3288
2976	670	400	400	110746	3288
2977	670	400	400	110746	3292
2978	670	400	400	110746	3292
2979	670	400	400	110765	3292
2980	670	400	400	110765	3294
2981	670	400	400	110765	3294
2982	670	400	400	110788	3294
2983	670	400	400	110788	3296
2984	670	400	400	110788	3296
2985	669	400	400	110813	3296
2986	670	400	400	110813	3298
2987	671	400	400	110813	3298
2988	670	400	400	110839	3298
2989	670	400	400	110839	3300
2990	669	400	400	110839	3300
2991	670	400	400	110869	3300
2992	669	400	400	110869	3302
2993	669	400	400	110869	3302
2994	670	400	400	110896	3302
2995	670	400	400	110896	3304
2996	669	400	400	110896	3304
2997	670	400	400	110896	3304
2998	670	400	400	110918	3306
2999	670	400	400	110918	3306
3000	670	400	400	110918	3306
3001	670	400	400	110941	3308
3002	670	400	400	110941	3308
3003	670	400	400	110941	3308
3004	670	400	400	110961	3311
3005	670	400	400	110961	3311
3006	669	400	400	110961	3311
3007	669	400	400	110981	3314
3008	670	400	400	110981	3314
3009	670	400	400	110981	3314
3010	670	400	400	111000	3319
3011	670	400	400	111000	3319
3012	669	400	400	111000	3319
3013	670	400	400	111018	3324
3014	670	400	400	111018	3324
3015	670	400	400	111018	3324
3016	669	400	400	111028	3330
3017	670	400	400	111028	3330
3018	670	400	400	111028	3330
3019	670	400	400	111038	3338
3020	670	400	400	111038	3338
3021	670	400	400	111038	3338
3022	668	400	400	111049	3348
3023	668	400	400	111049	3348
3024	670	400	400	111049	3348
3025	670	400	400	111062	3358
3026	670	400	400	111062	3358
3027	670	400	400	111062	3358
3028	670	400	400	111076	3370
3029	669	400	400	111076	3370
3030	669	400	400	111076	3370
3031	670	400	400	111093	3381
3032	670	400	400	111093	3381
3033	669	400	400	111093	3381
3034	669	400	400	111112	3393
3035	670	400	400	111112	3393
3036	670	400	400	111112	3393
3037	669	400	400	111133	3408
3038	670	400	400	111133	3408
3039	670	400	400	111133	3408
3040	670	400	400	111155	3425
3041	670	400	400	111155	3425
3042	670	400	400	111155	3425
3043	669	400	400	111177	3441
3044	670	400	400	111177	3441
3045	670	400	400	111177	3441
3046	669	400	400	111202	3457
3047	670	400	400	111202	3457
3048	670	400	400	111202	3457
3049	670	400	400	111227	3474
3050	669	400	400	111227	3474
3051	670	400	400	111227	3474
3052	669	400	400	111253	3491
3053	670	400	400	111253	3491
3054	669	400	400	111253	3491
3055	670	400	400	111280	3508
3056	670	400	400	111280	3508
3057	670	400	400	111280	3508
3058	670	400	400	111302	3525
3059	670	400	400	111302	3525
3060	669	400	400	111302	3525
3061	670	400	400	111324	3543
3062	670	400	400	111324	3543
3063	670	400	400	111324	3543
3064	669	400	400	111340	3555
3065	670	400	400	111340	3555
3066	669	400	400	111340	3555
3067	670	400	400	111352	3565
3068	669	400	400	111352	3565
3069	670	400	400	111352	3565
3070	670	400	400	111362	3565
3071	670	400	400	111362	3576
3072	669	400	400	111362	3576
3073	669	400	400	111370	3576
3074	669	400	400	111370	3587
3075	670	400	400	111370	3587
3076	670	400	400	111375	3587
3077	670	400	400	111375	3595
3078	670	400	400	111375	3595
3079	670	400	400	111380	3595
3080	670	400	400	111380	3602
3081	670	400	400	111380	3602
3082	671	400	400	111383	3602
3083	670	400	400	111383	3607
3084	670	400	400	111383	3607
3085	669	400	400	111386	3607
3086	670	400	400	111386	3611
3087	670	400	400	111386	3611
3088	670	400	400	111388	3611
3089	669	400	400	111388	3614
3090	669	400	400	111388	3614
3091	670	400	400	111393	3614
3092	669	400	400	111393	3617
3093	670	400	400	111393	3617
3094	669	400	400	111404	3617
3095	670	400	400	111404	3620
3096	669	400	400	111404	3620
3097	669	400	400	111416	3620
3098	669	400	400	111416	3622
3099	670	400	400	111416	3622
3100	670	400	400	111430	3622
3101	670	400	400	111430	3624
3102	670	400	400	111430	3624
3103	669	400	400	111448	3624
3104	670	400	400	111448	3626
3105	670	400	400	111448	3626
3106	670	400	400	111467	3626
3107	668	400	400	111467	3628
3108	669	400	400	111467	3628
3109	670	400	400	111488	3628
3110	670	400	400	111488	3630
3111	669	400	400	111488	3630
3112	669	400	400	111512	3630
3113	670	400	400	111512	3632
3114	670	400	400	111512	3632
3115	670	400	400	111536	3632
3116	670	400	400	111536	3634
3117	670	400	400	111536	3634
3118	671	400	400	111561	3634
3119	670	400	400	111561	3636
3120	669	400	400	111561	3636
3121	670	400	400	111561	3636
3122	670	400	400	111585	3638
3123	669	400	400	111585	3638
3124	670	400	400	111585	3638
3125	670	400	400	111606	3639
3126	670	400	400	111606	3639
3127	669	400	400	111606	3639
3128	670	400	400	111628	3640
3129	669	400	400	111628	3640
3130	670	400	400	111628	3640
3131	670	400	400	111649	3642
3132	670	400	400	111649	3642
3133	669	400	400	111649	3642
3134	669	400	400	111668	3643
3135	670	400	400	111668	3643
3136	670	400	400	111668	3643
3137	670	400	400	111684	3650
3138	669	400	400	111684	3650
3139	669	400	400	111684	3650
3140	669	400	400	111691	3660
3141	670	400	400	111691	3660
3142	670	400	400	111691	3660
3143	669	400	400	111697	3674
3144	670	400	400	111697	3674
3145	670	400	400	111697	3674
3146	669	400	400	111704	3688
3147	670	400	400	111704	3688
3148	670	400	400	111704	3688
3149	669	400	400	111712	3705
3150	670	400	400	111712	3705
3151	670	400	400	111712	3705
3152	670	400	400	111721	3724
3153	670	400	400	111721	3724
3154	670	400	400	111721	3724
3155	670	400	400	111731	3741
3156	670	400	400	111731	3741
3157	670	400	400	111731	3741
3158	670	400	400	111743	3760
3159	670	400	400	111743	3760
3160	670	400	400	111743	3760
3161	670	400	400	111755	3779
3162	670	400	400	111755	3779
3163	670	400	400	111755	3779
3164	670	400	400	111767	3800
3165	669	400	400	111767	3800
3166	670	400	400	111767	3800
3167	670	400	400	111780	3820
3168	670	400	400	111780	3820
3169	669	400	400	111780	3820
3170	669	400	400	111796	3841
3171	669	400	400	111796	3841
3172	669	400	400	111796	3841
3173	669	400	400	111815	3861
3174	670	400	400	111815	3861
3175	669	400	400	111815	3861
3176	669	400	400	111838	3881
3177	669	400	400	111838	3881
3178	670	400	400	111838	3881
3179	669	400	400	111861	3900
3180	670	400	400	111861	3900
3181	670	400	400	111861	3900
3182	670	400	400	111884	3913
3183	670	400	400	111884	3913
3184	670	400	400	111884	3913
3185	671	400	400	111909	3913
3186	669	400	400	111909	3925
3187	670	400	400	111909	3925
3188	668	400	400	111932	3925
3189	670	400	400	111932	3936
3190	670	400	400	111932	3936
3191	669	400	400	111955	3936
3192	670	400	400	111955	3946
3193	669	400	400	111955	3946
3194	670	400	400	111977	3946
3195	669	400	400	111977	3956
3196	669	400	400	111977	3956
3197	670	400	400	111996	3956
3198	669	400	400	111996	3963
3199	670	400	400	111996	3963
3200	668	400	400	112015	3963
3201	670	400	400	112015	3966
3202	670	400	400	112015	3966
3203	670	400	400	112030	3966
3204	670	400	400	112030	3968
3205	670	400	400	112030	3968
3206	670	400	400	112042	3968
3207	670	400	400	112042	3971
3208	670	400	400	112042	3971
3209	670	400	400	112050	3971
3210	669	400	400	112050	3974
3211	669	400	400	112050	3974
3212	669	400	400	112058	3974
3213	669	400	400	112058	3978
3214	670	400	400	112058	3978
3215	669	400	400	112063	3978
3216	670	400	400	112063	3982
3217	670	400	400	112063	3982
3218	670	400	400	112067	3982
3219	670	400	400	112067	3987
3220	670	400	400	112067	3987
3221	670	400	400	112071	3987
3222	669	400	400	112071	3994
3223	670	400	400	112071	3994
3224	670	400	400	112074	3994
3225	670	400	400	112074	4002
3226	670	400	400	112074	4002
3227	670	400	400	112079	4002
3228	670	400	400	112079	4010
3229	670	400	400	112079	4010
3230	670	400	400	112089	4010
3231	670	400	400	112089	4020
3232	670	400	400	112089	4020
3233	670	400	400	112102	4020
3234	670	400	400	112102	4033
3235	670	400	400	112102	4033
3236	669	400	400	112116	4033
3237	669	400	400	112116	4048
3238	669	400	400	112116	4048
3239	670	400	400	112116	4048
3240	670	400	400	112133	4066
3241	670	400	400	112133	4066
3242	670	400	400	112133	4066
3243	670	400	400	112150	4084
3244	669	400	400	112150	4084
3245	669	400	400	112150	4084
3246	670	400	400	112168	4102
3247	670	400	400	112168	4102
3248	670	400	400	112168	4102
3249	669	400	400	112187	4123
3250	671	400	400	112187	4123
3251	670	400	400	112187	4123
3252	669	400	400	112208	4144
3253	670	400	400	112208	4144
3254	670	400	400	112208	4144
3255	670	400	400	112228	4165
3256	670	400	400	112228	4165
3257	669	400	400	112228	4165
3258	670	400	400	112248	4187
3259	669	400	400	112248	4187
3260	670	400	400	112248	4187
3261	670	400	400	112268	4205
3262	670	400	400	112268	4205
3263	670	400	400	112268	4205
3264	670	400	400	112286	4223
3265	670	400	400	112286	4223
3266	670	400	400	112286	4223
3267	668	400	400	112303	4242
3268	670	400	400	112303	4242
3269	670	400	400	112303	4242
3270	670	400	400	112319	4257
3271	670	400	400	112319	4257
3272	669	400	400	112319	4257
3273	670	400	400	112335	4270
3274	669	400	400	112335	4270
3275	670	400	400	112335	4270
3276	670	400	400	112350	4281
3277	669	400	400	112350	4281
3278	669	400	400	112350	4281
3279	670	400	400	112365	4292
3280	670	400	400	112365	4292
3281	668	400	400	112365	4292
3282	670	400	400	112376	4302
3283	669	400	400	112376	4302
3284	670	400	400	112376	4302
3285	670	400	400	112380	4310
3286	669	400	400	112380	4310
3287	669	400	400	112380	4310
3288	670	400	400	112381	4317
3289	671	400	400	112381	4317
3290	670	400	400	112381	4317
3291	670	400	400	112382	4323
3292	669	400	400	112382	4323
3293	670	400	400	112382	4323
3294	670	400	400	112383	4328
3295	670	400	400	112383	4328
3296	669	400	400	112383	4328
3297	669	400	400	112384	4332
3298	670	400	400	112384	4332
3299	669	400	400	112384	4332
3300	670	400	400	112385	4332
3301	670	400	400	112385	4337
3302	670	400	400	112385	4337
3303	670	400	400	112386	4337
3304	670	400	400	112386	4342
3305	671	400	400	112386	4342
3306	670	400	400	112387	4342
3307	670	400	400	112387	4348
3308	670	400	400	112387	4348
3309	670	400	400	112387	4348
3310	670	400	400	112387	4354
3311	670	400	400	112387	4354
3312	670	400	400	112388	4354
3313	670	400	400	112388	4361
3314	670	400	400	112388	4361
3315	670	400	400	112390	4361
3316	670	400	400	112390	4369
3317	670	400	400	112390	4369
3318	670	400	400	112391	4369
3319	669	400	400	112391	4376
3320	670	400	400	112391	4376
3321	670	400	400	112394	4376
3322	670	400	400	112394	4384
3323	670	400	400	112394	4384
3324	670	400	400	112397	4384
3325	669	400	400	112397	4393
3326	669	400	400	112397	4393
3327	670	400	400	112402	4393
3328	669	400	400	112402	4403
3329	670	400	400	112402	4403
3330	669	400	400	112409	4403
3331	668	400	400	112409	4415
3332	669	400	400	112409	4415
3333	668	400	400	112418	4415
3334	670	400	400	112418	4426
3335	669	400	400	112418	4426
3336	670	400	400	112427	4426
3337	669	400	400	112427	4436
3338	670	400	400	112427	4436
3339	669	400	400	112438	4436
3340	670	400	400	112438	4448
3341	669	400	400	112438	4448
3342	670	400	400	112449	4448
3343	669	400	400	112449	4463
3344	670	400	400	112449	4463
3345	670	400	400	112463	4463
3346	669	400	400	112463	4479
3347	670	400	400	112463	4479
3348	669	400	400	112480	4479
3349	670	400	400	112480	4496
3350	669	400	400	112480	4496
3351	670	400	400	112499	4496
3352	670	400	400	112499	4513
3353	671	400	400	112499	4513
3354	670	400	400	112519	4513
3355	670	400	400	112519	4530
3356	670	400	400	112519	4530
3357	670	400	400	112519	4530
3358	669	400	400	112542	4546
3359	670	400	400	112542	4546
3360	670	400	400	112542	4546
3361	669	400	400	112563	4559
3362	669	400	400	112563	4559
3363	669	400	400	112563	4559
3364	670	400	400	112586	4571
3365	670	400	400	112586	4571
3366	668	400	400	112586	4571
3367	670	400	400	112612	4582
3368	670	400	400	112612	4582
3369	670	400	400	112612	4582
3370	670	400	400	112635	4591
3371	670	400	400	112635	4591
3372	669	400	400	112635	4591
3373	670	400	400	112658	4597
3374	670	400	400	112658	4597
3375	670	400	400	112658	4597
3376	669	400	400	112678	4601
3377	669	400	400	112678	4601
3378	670	400	400	112678	4601
3379	670	400	400	112695	4605
3380	668	400	400	112695	4605
3381	669	400	400	112695	4605
3382	670	400	400	112710	4610
3383	670	400	400	112710	4610
3384	670	400	400	112710	4610
3385	670	400	400	112725	4616
3386	670	400	400	112725	4616
3387	671	400	400	112725	4616
3388	669	400	400	112737	4622
3389	670	400	400	112737	4622
3390	669	400	400	112737	4622
3391	670	400	400	112745	4627
3392	670	400	400	112745	4627
3393	670	400	400	112745	4627
3394	670	400	400	112754	4631
3395	670	400	400	112754	4631
3396	670	400	400	112754	4631
3397	670	400	400	112766	4634
3398	669	400	400	112766	4634
3399	670	400	400	112766	4634
3400	669	400	400	112781	4637
3401	670	400	400	112781	4637
3402	670	400	400	112781	4637
3403	669	400	400	112796	4639
3404	670	400	400	112796	4639
3405	670	400	400	112796	4639
3406	669	400	400	112810	4641
3407	670	400	400	112810	4641
3408	670	400	400	112810	4641
3409	670	400	400	112828	4643
3410	670	400	400	112828	4643
3411	670	400	400	112828	4643
3412	670	400	400	112846	4644
3413	670	400	400	112846	4644
3414	670	400	400	112846	4644
3415	670	400	400	112870	4645
3416	670	400	400	112870	4645
3417	670	400	400	112870	4645
3418	670	400	400	112894	4645
3419	670	400	400	112894	4647
3420	671	400	400	112894	4647
3421	669	400	400	112922	4647
3422	670	400	400	112922	4648
3423	670	400	400	112922	4648
3424	669	400	400	112947	4648
3425	670	400	400	112947	4649
3426	670	400	400	112947	4649
3427	670	400	400	112968	4649
3428	669	400	400	112968	4650
3429	670	400	400	112968	4650
3430	670	400	400	112990	4650
3431	670	400	400	112990	4651
3432	670	400	400	112990	4651
3433	669	400	400	113011	4651
3434	670	400	400	113011	4652
3435	669	400	400	113011	4652
3436	670	400	400	113031	4652
3437	669	400	400	113031	4653
3438	670	400	400	113031	4653
3439	670	400	400	113048	4653
3440	669	400	400	113048	4653
3441	670	400	400	113048	4653
3442	669	400	400	113062	4653
3443	670	400	400	113062	4654
3444	670	400	400	113062	4654
3445	670	400	400	113068	4654
3446	669	400	400	113068	4655
3447	670	400	400	113068	4655
3448	669	400	400	113071	4655
3449	669	400	400	113071	4655
3450	670	400	400	113071	4655
3451	670	400	400	113074	4655
3452	670	400	400	113074	4656
3453	670	400	400	113074	4656
3454	670	400	400	113077	4656
3455	670	400	400	113077	4657
3456	670	400	400	113077	4657
3457	670	400	400	113079	4657
3458	670	400	400	113079	4657
3459	670	400	400	113079	4657
3460	669	400	400	113081	4657
3461	669	400	400	113081	4658
3462	670	400	400	113081	4658
3463	670	400	400	113083	4658
3464	669	400	400	113083	4658
3465	669	400	400	113083	4658
3466	669	400	400	113085	4658
3467	670	400	400	113085	4658
3468	670	400	400	113085	4658
3469	669	400	400	113087	4658
3470	670	400	400	113087	4659
3471	669	400	400	113087	4659
3472	671	400	400	113090	4659
3473	669	400	400	113090	4659
3474	670	400	400	113090	4659
3475	670	400	400	113090	4659
3476	670	400	400	113095	4659
3477	670	400	400	113095	4659
3478	670	400	400	113095	4659
3479	669	400	400	113101	4659
3480	670	400	400	113101	4659
3481	670	400	400	113101	4659
3482	670	400	400	113110	4660
3483	668	400	400	113110	4660
3484	669	400	400	113110	4660
3485	670	400	400	113120	4660
3486	670	400	400	113120	4660
3487	669	400	400	113120	4660
3488	670	400	400	113131	4660
3489	670	400	400	113131	4660
3490	670	400	400	113131	4660
3491	670	400	400	113139	4660
3492	670	400	400	113139	4660
3493	670	400	400	113139	4660
3494	669	400	400	113148	4660
3495	669	400	400	113148	4660
3496	670	400	400	113148	4660
3497	669	400	400	113162	4661
3498	670	400	400	113162	4661
3499	669	400	400	113162	4661
3500	670	400	400	113177	4661
3501	670	400	400	113177	4661
3502	669	400	400	113177	4661
3503	670	400	400	113193	4661
3504	670	400	400	113193	4661
3505	670	400	400	113193	4661
3506	670	400	400	113209	4661
3507	669	400	400	113209	4661
3508	670	400	400	113209	4661
3509	670	400	400	113226	4663
3510	670	400	400	113226	4663
3511	670	400	400	113226	4663
3512	670	400	400	113247	4665
3513	670	400	400	113247	4665
3514	669	400	400	113247	4665
3515	670	400	400	113265	4668
3516	669	400	400	113265	4668
3517	670	400	400	113265	4668
3518	669	400	400	113283	4671
3519	669	400	400	113283	4671
3520	669	400	400	113283	4671
3521	668	400	400	113303	4677
3522	670	400	400	113303	4677
3523	669	400	400	113303	4677
3524	670	400	400	113323	4683
3525	669	400	400	113323	4683
3526	670	400	400	113323	4683
3527	670	400	400	113338	4691
3528	670	400	400	113338	4691
3529	669	400	400	113338	4691
3530	670	400	400	113353	4701
3531	670	400	400	113353	4701
3532	669	400	400	113353	4701
3533	670	400	400	113367	4712
3534	670	400	400	113367	4712
3535	670	400	400	113367	4712
3536	670	400	400	113378	4723
3537	670	400	400	113378	4723
3538	670	400	400	113378	4723
3539	670	400	400	113389	4739
3540	670	400	400	113389	4739
3541	669	400	400	113389	4739
3542	670	400	400	113399	4758
3543	670	400	400	113399	4758
3544	670	400	400	113399	4758
3545	670	400	400	113407	4758
3546	670	400	400	113407	4777
3547	670	400	400	113407	4777
3548	670	400	400	113415	4777
3549	671	400	400	113415	4795
3550	669	400	400	113415	4795
3551	669	400	400	113422	4795
3552	669	400	400	113422	4815
3553	669	400	400	113422	4815
3554	669	400	400	113424	4815
3555	669	400	400	113424	4835
3556	670	400	400	113424	4835
3557	670	400	400	113424	4835
3558	670	400	400	113424	4853
3559	669	400	400	113424	4853
3560	669	400	400	113424	4853
3561	670	400	400	113424	4872
3562	670	400	400	113424	4872
3563	669	400	400	113424	4872
3564	670	400	400	113424	4892
3565	669	400	400	113424	4892
3566	669	400	400	113424	4892
3567	670	400	400	113424	4908
3568	670	400	400	113424	4908
3569	669	400	400	113425	4908
3570	669	400	400	113425	4924
3571	670	400	400	113425	4924
3572	670	400	400	113425	4924
3573	669	400	400	113425	4938
3574	670	400	400	113425	4938
3575	670	400	400	113425	4938
3576	670	400	400	113425	4949
3577	670	400	400	113425	4949
3578	669	400	400	113425	4949
3579	670	400	400	113425	4959
3580	669	400	400	113425	4959
3581	670	400	400	113425	4959
3582	670	400	400	113425	4969
3583	669	400	400	113425	4969
3584	670	400	400	113425	4969
3585	669	400	400	113425	4979
3586	670	400	400	113425	4979
3587	670	400	400	113425	4979
3588	668	400	400	113425	4987
3589	670	400	400	113425	4987
3590	670	400	400	113426	4987
3591	670	400	400	113426	4994
3592	670	400	400	113426	4994
3593	669	400	400	113426	4994
3594	669	400	400	113426	4996
3595	670	400	400	113426	4996
3596	670	400	400	113426	4996
3597	670	400	400	113426	5000
3598	669	400	400	113426	5000
3599	669	400	400	113426	5000
3600	671	400	400	113426	5003
3601	670	400	400	113426	5003
3602	668	400	400	113426	5003
3603	670	400	400	113426	5007
3604	670	400	400	113426	5007
3605	670	400	400	113426	5007
3606	669	400	400	113426	5012
3607	669	400	400	113426	5012
3608	669	400	400	113426	5012
3609	670	400	400	113426	5018
3610	670	400	400	113426	5018
3611	669	400	400	113426	5018
3612	670	400	400	113426	5026
3613	669	400	400	113426	5026
3614	670	400	400	113426	5026
3615	670	400	400	113426	5036
3616	670	400	400	113426	5036
3617	670	400	400	113426	5036
3618	669	400	400	113427	5046
3619	670	400	400	113427	5046
3620	669	400	400	113427	5046
3621	670	400	400	113427	5059
3622	669	400	400	113427	5059
3623	670	400	400	113427	5059
3624	670	400	400	113427	5071
3625	670	400	400	113427	5071
3626	670	400	400	113427	5071
3627	670	400	400	113427	5084
3628	670	400	400	113427	5084
3629	669	400	400	113427	5084
3630	670	400	400	113427	5099
3631	671	400	400	113427	5099
3632	670	400	400	113427	5099
3633	670	400	400	113427	5114
3634	670	400	400	113427	5114
3635	670	400	400	113427	5114
3636	670	400	400	113427	5131
3637	669	400	400	113427	5131
3638	670	400	400	113427	5131
3639	670	400	400	113427	5151
3640	669	400	400	113427	5151
3641	669	400	400	113427	5151
3642	670	400	400	113427	5173
3643	669	400	400	113427	5173
3644	670	400	400	113427	5173
3645	670	400	400	113428	5195
3646	670	400	400	113428	5195
3647	670	400	400	113428	5195
3648	670	400	400	113428	5217
3649	668	400	400	113428	5217
3650	670	400	400	113428	5217
3651	670	400	400	113428	5235
3652	669	400	400	113428	5235
3653	670	400	400	113428	5235
3654	669	400	400	113428	5251
3655	670	400	400	113428	5251
3656	669	400	400	113428	5251
3657	670	400	400	113428	5266
3658	669	400	400	113428	5266
3659	670	400	400	113428	5266
3660	668	400	400	113428	5281
3661	670	400	400	113428	5281
3662	670	400	400	113428	5281
3663	670	400	400	113428	5281
3664	669	400	400	113428	5294
3665	670	400	400	113428	5294
3666	670	400	400	113428	5294
3667	669	400	400	113428	5305
3668	670	400	400	113428	5305
3669	670	400	400	113428	5305
3670	670	400	400	113428	5313
3671	670	400	400	113428	5313
3672	670	400	400	113428	5313
3673	669	400	400	113428	5321
3674	670	400	400	113428	5321
3675	670	400	400	113428	5321
3676	670	400	400	113428	5328
3677	670	400	400	113428	5328
3678	668	400	400	113429	5328
3679	669	400	400	113429	5333
3680	670	400	400	113429	5333
3681	670	400	400	113429	5333
3682	668	400	400	113429	5338
3683	670	400	400	113429	5338
3684	669	400	400	113429	5338
3685	670	400	400	113429	5342
3686	670	400	400	113429	5342
3687	668	400	400	113429	5342
3688	670	400	400	113429	5343
3689	670	400	400	113429	5343
3690	670	400	400	113429	5343
3691	670	400	400	113429	5344
3692	670	400	400	113429	5344
3693	670	400	400	113429	5344
3694	668	400	400	113429	5346
3695	669	400	400	113429	5346
3696	669	400	400	113429	5346
3697	670	400	400	113429	5348
3698	670	400	400	113429	5348
3699	670	400	400	113429	5348
3700	670	400	400	113429	5350
3701	670	400	400	113429	5350
3702	670	400	400	113429	5350
3703	670	400	400	113429	5352
3704	670	400	400	113429	5352
3705	670	400	400	113429	5352
3706	670	400	400	113429	5354
3707	670	400	400	113429	5354
3708	669	400	400	113430	5354
3709	670	400	400	113430	5357
3710	669	400	400	113430	5357
3711	670	400	400	113430	5357
3712	669	400	400	113430	5360
3713	670	400	400	113430	5360
3714	669	400	400	113430	5360
3715	670	400	400	113430	5364
3716	671	400	400	113430	5364
3717	670	400	400	113430	5364
3718	670	400	400	113430	5370
3719	670	400	400	113430	5370
3720	670	400	400	113430	5370
3721	668	400	400	113430	5377
3722	670	400	400	113430	5377
3723	669	400	400	113430	5377
3724	670	400	400	113430	5386
3725	670	400	400	113430	5386
3726	671	400	400	113430	5386
3727	669	400	400	113430	5397
3728	670	400	400	113430	5397
3729	671	400	400	113430	5397
3730	669	400	400	113430	5409
3731	669	400	400	113430	5409
3732	670	400	400	113430	5409
3733	670	400	400	113430	5422
3734	670	400	400	113430	5422
3735	669	400	400	113430	5422
3736	670	400	400	113430	5437
3737	669	400	400	113430	5437
3738	670	400	400	113430	5437
3739	671	400	400	113430	5454
3740	670	400	400	113430	5454
3741	670	400	400	113430	5454
3742	670	400	400	113430	5471
3743	670	400	400	113430	5471
3744	669	400	400	113430	5471
3745	670	400	400	113430	5486
3746	670	400	400	113430	5486
3747	670	400	400	113430	5486
3748	670	400	400	113430	5501
3749	669	400	400	113430	5501
3750	670	400	400	113430	5501
3751	670	400	400	113431	5517
3752	669	400	400	113431	5517
3753	669	400	400	113431	5517
3754	670	400	400	113431	5532
3755	670	400	400	113431	5532
3756	670	400	400	113431	5532
3757	669	400	400	113431	5548
3758	670	400	400	113431	5548
3759	669	400	400	113431	5548
3760	670	400	400	113431	5564
3761	670	400	400	113431	5564
3762	670	400	400	113431	5564
3763	670	400	400	113431	5579
3764	670	400	400	113431	5579
3765	671	400	400	113431	5579
3766	670	400	400	113431	5594
3767	670	400	400	113431	5594
3768	670	400	400	113431	5594
3769	670	400	400	113431	5604
3770	670	400	400	113431	5604
3771	670	400	400	113431	5604
3772	670	400	400	113431	5614
3773	669	400	400	113431	5614
3774	669	400	400	113431	5614
3775	670	400	400	113431	5622
3776	670	400	400	113431	5622
3777	670	400	400	113431	5622
3778	670	400	400	113431	5631
3779	670	400	400	113431	5631
3780	670	400	400	113431	5631
3781	670	400	400	113431	5631
3782	670	400	400	113431	5639
3783	670	400	400	113431	5639
3784	670	400	400	113431	5639
3785	669	400	400	113431	5645
3786	669	400	400	113431	5645
3787	669	400	400	113431	5645
3788	669	400	400	113431	5649
3789	670	400	400	113431	5649
3790	669	400	400	113431	5649
3791	670	400	400	113431	5652
3792	670	400	400	113431	5652
3793	669	400	400	113432	5652
3794	669	400	400	113432	5655
3795	669	400	400	113432	5655
3796	670	400	400	113432	5655
3797	669	400	400	113432	5658
3798	670	400	400	113432	5658
3799	670	400	400	113432	5658
3800	670	400	400	113432	5660
3801	670	400	400	113432	5660
3802	670	400	400	113432	5660
3803	670	400	400	113432	5662
3804	670	400	400	113432	5662
3805	670	400	400	113432	5662
3806	671	400	400	113432	5664
3807	670	400	400	113432	5664
3808	670	400	400	113432	5664
3809	670	400	400	113432	5666
3810	670	400	400	113432	5666
3811	670	400	400	113432	5666
3812	670	400	400	113432	5668
3813	670	400	400	113432	5668
3814	670	400	400	113432	5668
3815	670	400	400	113432	5670
3816	670	400	400	113432	5670
3817	669	400	400	113432	5670
3818	669	400	400	113432	5672
3819	669	400	400	113432	5672
3820	670	400	400	113432	5672
3821	668	400	400	113432	5673
3822	670	400	400	113432	5673
3823	670	400	400	113432	5673
3824	670	400	400	113432	5675
3825	670	400	400	113432	5675
3826	670	400	400	113432	5675
3827	670	400	400	113432	5676
3828	669	400	400	113432	5676
3829	670	400	400	113432	5676
3830	669	400	400	113432	5677
3831	670	400	400	113432	5677
3832	669	400	400	113432	5677
3833	670	400	400	113432	5678
3834	670	400	400	113432	5678
3835	669	400	400	113432	5678
3836	669	400	400	113432	5678
3837	671	400	400	113432	5678
3838	669	400	400	113432	5678
3839	670	400	400	113432	5679
3840	670	400	400	113432	5679
3841	670	400	400	113432	5679
3842	669	400	400	113432	5680
3843	670	400	400	113432	5680
3844	670	400	400	113432	5680
3845	670	400	400	113433	5680
3846	669	400	400	113433	5680
3847	669	400	400	113433	5680
3848	669	400	400	113433	5681
3849	669	400	400	113433	5681
3850	669	400	400	113433	5681
3851	671	400	400	113433	5681
3852	670	400	400	113433	5681
3853	670	400	400	113433	5681
3854	670	400	400	113433	5682
3855	670	400	400	113433	5682
3856	670	400	400	113433	5682
3857	669	400	400	113433	5682
3858	670	400	400	113433	5682
3859	669	400	400	113433	5682
3860	670	400	400	113433	5682
3861	670	400	400	113433	5682
3862	670	400	400	113433	5682
3863	669	400	400	113433	5683
3864	669	400	400	113433	5683
3865	670	400	400	113433	5683
3866	670	400	400	113433	5683
3867	669	400	400	113433	5683
3868	670	400	400	113433	5683
3869	670	400	400	113433	5683
3870	669	400	400	113433	5683
3871	670	400	400	113433	5683
3872	670	400	400	113433	5683
3873	669	400	400	113433	5683
3874	669	400	400	113433	5683
3875	671	400	400	113433	5684
3876	670	400	400	113433	5684
3877	670	400	400	113433	5684
3878	670	400	400	113433	5684
3879	670	400	400	113433	5684
3880	670	400	400	113433	5684
3881	670	400	400	113433	5684
3882	670	400	400	113433	5684
3883	670	400	400	113433	5684
3884	669	400	400	113433	5684
3885	669	400	400	113433	5684
3886	670	400	400	113433	5684
3887	670	400	400	113433	5685
3888	671	400	400	113433	5685
3889	670	400	400	113433	5685
3890	670	400	400	113433	5685
3891	670	400	400	113433	5685
3892	670	400	400	113433	5685
3893	669	400	400	113433	5685
3894	669	400	400	113433	5685
3895	669	400	400	113433	5685
3896	670	400	400	113433	5685
3897	669	400	400	113433	5685
3898	669	400	400	113433	5685
3899	670	400	400	113433	5685
3900	670	400	400	113433	5685
3901	670	400	400	113433	5685
3902	670	400	400	113433	5685
3903	669	400	400	113433	5686
3904	670	400	400	113433	5686
3905	670	400	400	113434	5686
3906	669	400	400	113434	5686
3907	670	400	400	113434	5686
3908	669	400	400	113434	5686
3909	670	400	400	113434	5686
3910	670	400	400	113434	5686
3911	670	400	400	113434	5686
3912	670	400	400	113434	5686
3913	670	400	400	113434	5686
3914	671	400	400	113434	5686
3915	670	400	400	113434	5686
3916	670	400	400	113434	5686
3917	670	400	400	113434	5686
3918	670	400	400	113434	5687
3919	670	400	400	113434	5687
3920	669	400	400	113434	5687
3921	669	400	400	113434	5687
3922	669	400	400	113434	5687
3923	669	400	400	113434	5687
3924	668	400	400	113434	5687
3925	670	400	400	113434	5687
3926	669	400	400	113434	5687
3927	670	400	400	113434	5687
3928	670	400	400	113434	5687
3929	670	400	400	113434	5687
3930	670	400	400	113434	5687
3931	669	400	400	113434	5687
3932	669	400	400	113434	5687
3933	669	400	400	113434	5687
3934	670	400	400	113434	5687
3935	669	400	400	113434	5687
3936	670	400	400	113434	5688
3937	670	400	400	113434	5688
3938	670	400	400	113434	5688
3939	670	400	400	113434	5688
3940	670	400	400	113434	5688
3941	669	400	400	113434	5688
3942	670	400	400	113434	5688
3943	669	400	400	113434	5688
3944	670	400	400	113434	5688
3945	669	400	400	113434	5688
3946	669	400	400	113434	5688
3947	671	400	400	113434	5688
3948	669	400	400	113434	5688
3949	669	400	400	113434	5688
3950	670	400	400	113434	5688
3951	671	400	400	113434	5688
3952	670	400	400	113434	5688
3953	669	400	400	113434	5688
3954	670	400	400	113434	5689
3955	669	400	400	113434	5689
3956	669	400	400	113434	5689
3957	670	400	400	113434	5689
3958	670	400	400	113434	5689
3959	670	400	400	113434	5689
3960	669	400	400	113434	5689
3961	670	400	400	113434	5689
3962	670	400	400	113434	5689
3963	670	400	400	113434	5689
3964	670	400	400	113434	5689
3965	669	400	400	113434	5689
3966	670	400	400	113434	5689
3967	670	400	400	113434	5689
3968	669	400	400	113434	5689
3969	670	400	400	113434	5689
3970	670	400	400	113434	5689
3971	670	400	400	113434	5689
3972	670	400	400	113435	5689
3973	670	400	400	113435	5689
3974	669	400	400	113435	5689
3975	669	400	400	113435	5690
3976	670	400	400	113435	5690
3977	670	400	400	113435	5690
3978	670	400	400	113435	5690
3979	670	400	400	113435	5690
3980	670	400	400	113435	5690
3981	668	400	400	113435	5690
3982	670	400	400	113435	5690
3983	670	400	400	113435	5690
3984	669	400	400	113435	5690
3985	669	400	400	113435	5690
3986	670	400	400	113435	5690
3987	670	400	400	113435	5690
3988	670	400	400	113435	5690
3989	669	400	400	113435	5690
3990	670	400	400	113435	5692
3991	669	400	400	113435	5692
3992	669	400	400	113435	5692
3993	671	400	400	113435	5698
3994	670	400	400	113435	5698
3995	669	400	400	113435	5698
3996	669	400	400	113435	5705
3997	669	400	400	113435	5705
3998	669	400	400	113435	5705
3999	669	400	400	113435	5715
4000	669	0	400	113435	5715
4001	669	0	400	113435	5715
4002	670	0	400	113435	5727
4003	670	0	400	113435	5727
4004	670	0	400	113435	5727
4005	669	0	400	113435	5697
4006	670	0	400	113435	5697
4007	669	0	400	113435	5697
4008	668	0	400	113435	5602
4009	669	0	400	113435	5602
4010	668	0	400	113435	5602
4011	669	0	400	113435	5434
4012	669	0	400	113435	5434
4013	669	0	400	113435	5434
4014	670	0	400	113435	5206
4015	669	0	400	113435	5206
4016	670	0	400	113435	5206
4017	670	0	400	113435	4928
4018	670	0	400	113435	4928
4019	670	0	400	113435	4928
4020	670	0	400	113435	4604
4021	670	0	400	113435	4604
4022	670	0	400	113435	4604
4023	670	0	400	113435	4244
4024	670	0	400	113435	4244
4025	671	0	400	113435	4244
4026	670	0	400	113435	3850
4027	669	0	400	113435	3850
4028	670	0	400	113435	3850
4029	670	0	400	113435	3424
4030	670	0	400	113435	3424
4031	670	0	400	113435	3424
4032	670	0	400	113435	3424
4033	670	0	400	113435	2963
4034	670	0	400	113435	2963
4035	669	0	400	113435	2963
4036	670	0	400	113435	2475
4037	669	0	400	113435	2475
4038	669	0	400	113435	2475
4039	669	0	400	113435	1956
4040	669	0	400	113435	1956
4041	669	0	400	113435	1956
4042	669	0	400	113435	1408
4043	670	0	400	113435	1408
4044	670	0	400	113435	1408
4045	670	0	400	113435	837
4046	670	0	400	113435	837
4047	670	0	400	113435	837
4048	670	0	400	113435	238
4049	669	0	400	113435	238
4050	669	0	400	113436	238
4051	670	0	400	113436	-384
4052	670	0	400	113436	-384
4053	669	0	400	113436	-384
4054	670	0	400	113436	-1034
4055	670	0	400	113436	-1034
4056	670	0	400	113436	-1034
4057	670	0	400	113436	-1697
4058	670	0	400	113436	-1697
4059	670	0	400	113436	-1697
4060	669	0	400	113436	-2389
4061	669	0	400	113436	-2389
4062	670	0	400	113436	-2389
4063	669	0	400	113436	-3102
4064	669	0	400	113436	-3102
4065	670	0	400	113436	-3102
4066	670	0	400	113436	-3834
4067	669	0	400	113436	-3834
4068	669	0	400	113436	-3834
4069	670	0	400	113436	-4588
4070	670	0	400	113436	-4588
4071	669	0	400	113436	-4588
4072	670	0	400	113436	-5365
4073	670	0	400	113436	-5365
4074	670	0	400	113436	-5365
4075	669	0	400	113436	-6158
4076	669	0	400	113436	-6158
4077	670	0	400	113436	-6158
4078	670	0	400	113436	-6974
4079	669	0	400	113436	-6974
4080	669	0	400	113436	-6974
4081	671	0	400	113436	-7805
4082	670	0	400	113436	-7805
4083	669	0	400	113436	-7805
4084	670	0	400	113438	-8657
4085	669	0	400	113438	-8657
4086	671	0	400	113438	-8657
4087	670	0	400	113446	-9524
4088	670	0	400	113446	-9524
4089	669	0	400	113446	-9524
4090	671	0	400	113457	-10405
4091	674	0	400	113457	-10405
4092	674	0	400	113457	-10405
4093	672	0	400	113471	-11307
4094	674	0	400	113471	-11307
4095	673	0	400	113471	-11307
4096	675	0	400	113487	-12219
4097	674	0	400	113487	-12219
4098	675	0	400	113487	-12219
4099	674	0	400	113507	-13150
4100	675	0	400	113507	-13150
4101	674	0	400	113507	-13150
4102	675	0	400	113527	-14092
4103	678	0	400	113527	-14092
4104	678	0	400	113527	-14092
4105	678	0	400	113551	-15049
4106	678	0	400	113551	-15049
4107	678	0	400	113551	-15049
4108	678	0	400	113579	-16020
4109	678	0	400	113579	-16020
4110	680	0	400	113579	-16020
4111	682	0	400	113606	-17004
4112	682	0	400	113606	-17004
4113	682	0	400	113606	-17004
4114	683	0	400	113633	-17997
4115	682	0	400	113633	-17997
4116	685	0	400	113633	-17997
4117	686	0	400	113658	-19005
4118	686	0	400	113658	-19005
4119	686	0	400	113658	-19005
4120	687	0	400	113686	-20021
