0	0	0	0	0	0
1	0	0	0	0	0
2	0	0	0	0	0
3	429	0	0	0	0
4	429	0	0	0	0
5	429	0	0	29376	0
6	430	0	0	29376	0
7	430	0	0	29376	-75136
8	429	0	0	29376	-75136
9	429	0	0	29376	-75136
10	429	200	200	29376	-75136
11	429	200	200	29376	-75136
12	430	200	200	29376	-75136
13	429	200	200	29376	-75136
14	429	200	200	29391	-75136
15	430	200	200	29391	-75136
16	430	200	200	29391	-75111
17	428	200	200	29430	-75111
18	430	200	200	29430	-75111
19	429	200	200	29430	-75060
20	429	200	200	29482	-75060
21	429	200	200	29482	-75060
22	429	200	200	29482	-75002
23	430	200	200	29534	-75002
24	429	200	200	29534	-75002
25	429	200	200	29534	-74934
26	430	200	200	29587	-74934
27	429	200	200	29587	-74934
28	430	200	200	29587	-74865
29	429	200	200	29642	-74865
30	429	200	200	29642	-74865
31	429	200	200	29642	-74794
32	429	200	200	29693	-74794
33	429	200	200	29693	-74794
34	429	200	200	29693	-74723
35	429	200	200	29746	-74723
36	429	200	200	29746	-74723
37	430	200	200	29746	-74646
38	429	200	200	29798	-74646
39	429	200	200	29798	-74646
40	429	200	200	29798	-74575
41	430	200	200	29850	-74575
42	429	200	200	29850	-74575
43	429	200	200	29850	-74500
44	430	200	200	29902	-74500
45	430	200	200	29902	-74500
46	433	200	200	29902	-74423
47	433	200	200	29952	-74423
48	434	200	200	29952	-74423
49	433	200	200	29952	-74351
50	433	200	200	30001	-74351
51	434	200	200	30001	-74351
52	433	200	200	30001	-74274
53	433	200	200	30050	-74274
54	433	200	200	30050	-74274
55	433	200	200	30050	-74202
56	434	200	200	30099	-74202
57	433	200	200	30099	-74202
58	433	200	200	30099	-74125
59	434	200	200	30150	-74125
60	433	200	200	30150	-74125
61	434	200	200	30150	-74050
62	433	200	200	30150	-74050
63	434	200	200	30202	-74050
64	433	200	200	30202	-73974
65	434	200	200	30202	-73974
66	433	200	200	30253	-73974
67	433	200	200	30253	-73899
68	433	200	200	30253	-73899
69	432	200	200	30302	-73899
70	434	200	200	30302	-73824
71	433	200	200	30302	-73824
72	434	200	200	30351	-73824
73	434	200	200	30351	-73748
74	434	200	200	30351	-73748
75	438	200	200	30399	-73748
76	437	200	200	30399	-73672
77	437	200	200	30399	-73672
78	437	200	200	30450	-73672
79	437	200	200	30450	-73599
80	437	200	200	30450	-73599
81	438	200	200	30501	-73599
82	437	200	200	30501	-73524
83	437	200	200	30501	-73524
84	437	200	200	30550	-73524
85	437	200	200	30550	-73447
86	438	200	200	30550	-73447
87	437	200	200	30602	-73447
88	437	200	200	30602	-73371
89	437	200	200	30602	-73371
90	437	200	200	30650	-73371
91	438	200	200	30650	-73296
92	437	200	200	30650	-73296
93	438	200	200	30700	-73296
94	437	200	200	30700	-73224
95	441	200	200	30700	-73224
96	442	200	200	30750	-73224
97	441	200	200	30750	-73147
98	442	200	200	30750	-73147
99	441	200	200	30799	-73147
100	442	200	200	30799	-73074
101	441	200	200	30799	-73074
102	441	200	200	30850	-73074
103	442	200	200	30850	-72998
104	441	200	200	30850	-72998
105	441	200	200	30898	-72998
106	441	200	200	30898	-72923
107	442	200	200	30898	-72923
108	441	200	200	30945	-72923
109	442	200	200	30945	-72849
110	442	200	200	30945	-72849
111	444	200	200	30997	-72849
112	445	200	200	30997	-72774
113	445	200	200	30997	-72774
114	446	200	200	31044	-72774
115	444	200	200	31044	-72702
116	445	200	200	31044	-72702
117	446	200	200	31092	-72702
118	445	200	200	31092	-72622
119	446	200	200	31092	-72622
120	445	200	200	31142	-72622
121	446	200	200	31142	-72550
122	446	200	200	31142	-72550
123	445	200	200	31192	-72550
124	446	200	200	31192	-72473
125	445	200	200	31192	-72473
126	446	200	200	31243	-72473
127	447	200	200	31243	-72397
128	450	200	200	31243	-72397
129	450	200	200	31293	-72397
130	449	200	200	31293	-72397
131	449	200	200	31293	-72322
132	450	200	200	31340	-72322
133	449	200	200	31340	-72322
134	450	200	200	31340	-72247
135	449	200	200	31389	-72247
136	449	200	200	31389	-72247
137	449	200	200	31389	-72171
138	449	200	200	31439	-72171
139	449	200	200	31439	-72171
140	449	200	200	31439	-72092
141	450	200	200	31487	-72092
142	450	200	200	31487	-72092
143	450	200	200	31487	-72017
144	449	200	200	31540	-72017
145	449	200	200	31540	-72017
146	449	200	200	31540	-71938
147	450	200	200	31590	-71938
148	449	200	200	31590	-71938
149	453	200	200	31590	-71864
150	453	200	200	31641	-71864
151	453	200	200	31641	-71864
152	453	200	200	31641	-71787
153	453	200	200	31692	-71787
154	453	200	200	31692	-71787
155	453	200	200	31692	-71710
156	454	200	200	31741	-71710
157	453	200	200	31741	-71710
158	453	200	200	31741	-71633
159	452	200	200	31792	-71633
160	454	200	200	31792	-71633
161	452	200	200	31792	-71560
162	453	200	200	31844	-71560
163	453	200	200	31844	-71560
164	453	200	200	31844	-71485
165	453	200	200	31896	-71485
166	453	200	200	31896	-71485
167	454	200	200	31896	-71408
168	452	200	200	31948	-71408
169	453	200	200	31948	-71408
170	453	200	200	31948	-71332
171	453	200	200	31998	-71332
172	457	200	200	31998	-71332
173	457	200	200	31998	-71255
174	457	200	200	32048	-71255
175	456	200	200	32048	-71255
176	457	200	200	32048	-71184
177	458	200	200	32097	-71184
178	457	200	200	32097	-71184
179	457	200	200	32097	-71107
180	456	200	200	32097	-71107
181	457	200	200	32147	-71107
182	456	200	200	32147	-71035
183	457	200	200	32147	-71035
184	457	200	200	32198	-71035
185	457	200	200	32198	-70958
186	457	200	200	32198	-70958
187	456	200	200	32251	-70958
188	457	200	200	32251	-70885
189	456	200	200	32251	-70885
190	457	200	200	32302	-70885
191	457	200	200	32302	-70811
192	457	200	200	32302	-70811
193	457	200	200	32352	-70811
194	457	200	200	32352	-70738
195	457	200	200	32352	-70738
196	458	200	200	32401	-70738
197	460	200	200	32401	-70667
198	461	200	200	32401	-70667
199	461	200	200	32448	-70667
200	461	200	200	32448	-70590
201	461	200	200	32448	-70590
202	461	200	200	32500	-70590
203	461	200	200	32500	-70517
204	460	200	200	32500	-70517
205	461	200	200	32552	-70517
206	461	200	200	32552	-70442
207	462	200	200	32552	-70442
208	461	200	200	32601	-70442
209	460	200	200	32601	-70367
210	461	200	200	32601	-70367
211	462	200	200	32653	-70367
212	461	200	200	32653	-70291
213	461	200	200	32653	-70291
214	462	200	200	32701	-70291
215	461	200	200	32701	-70219
216	460	200	200	32701	-70219
217	465	200	200	32751	-70219
218	465	200	200	32751	-70143
219	465	200	200	32751	-70143
220	465	200	200	32802	-70143
221	466	200	200	32802	-70068
222	465	200	200	32802	-70068
223	465	200	200	32852	-70068
224	466	200	200	32852	-69993
225	465	200	200	32852	-69993
226	464	200	200	32902	-69993
227	464	200	200	32902	-69915
228	466	200	200	32902	-69915
229	464	200	200	32951	-69915
230	466	200	200	32951	-69842
231	466	200	200	32951	-69842
232	465	200	200	32997	-69842
233	466	200	200	32997	-69765
234	465	200	200	32997	-69765
235	468	200	200	33047	-69765
236	469	200	200	33047	-69690
237	469	200	200	33047	-69690
238	469	200	200	33094	-69690
239	469	200	200	33094	-69612
240	470	200	200	33094	-69612
241	469	200	200	33142	-69612
242	470	200	200	33142	-69538
243	470	200	200	33142	-69538
244	470	200	200	33193	-69538
245	469	200	200	33193	-69464
246	469	200	200	33193	-69464
247	469	200	200	33242	-69464
248	469	200	200	33242	-69464
249	469	200	200	33242	-69389
250	469	200	200	33293	-69389
251	470	200	200	33293	-69389
252	470	200	200	33293	-69311
253	474	200	200	33343	-69311
254	473	200	200	33343	-69311
255	473	200	200	33343	-69235
256	474	200	200	33389	-69235
257	473	200	200	33389	-69235
258	473	200	200	33389	-69163
259	473	200	200	33439	-69163
260	473	200	200	33439	-69163
261	473	200	200	33439	-69087
262	474	200	200	33488	-69087
263	472	200	200	33488	-69087
264	474	200	200	33488	-69013
265	473	200	200	33536	-69013
266	474	200	200	33536	-69013
267	473	200	200	33536	-68937
268	474	200	200	33590	-68937
269	473	200	200	33590	-68937
270	476	200	200	33590	-68865
271	478	200	200	33640	-68865
272	477	200	200	33640	-68865
273	476	200	200	33640	-68790
274	477	200	200	33691	-68790
275	478	200	200	33691	-68790
276	477	200	200	33691	-68717
277	477	200	200	33743	-68717
278	478	200	200	33743	-68717
279	477	200	200	33743	-68644
280	476	200	200	33792	-68644
281	477	200	200	33792	-68644
282	477	200	200	33792	-68571
283	477	200	200	33845	-68571
284	477	200	200	33845	-68571
285	476	200	200	33845	-68494
286	477	200	200	33897	-68494
287	477	200	200	33897	-68494
288	477	200	200	33897	-68421
289	477	200	200	33950	-68421
290	481	200	200	33950	-68421
291	480	200	200	33950	-68347
292	480	200	200	34002	-68347
293	481	200	200	34002	-68347
294	481	200	200	34002	-68270
295	481	200	200	34054	-68270
296	481	200	200	34054	-68270
297	482	200	200	34054	-68199
298	482	200	200	34054	-68199
299	482	200	200	34104	-68199
300	482	200	200	34104	-68122
301	481	200	200	34104	-68122
302	481	200	200	34154	-68122
303	481	200	200	34154	-68050
304	481	200	200	34154	-68050
305	481	200	200	34205	-68050
306	481	200	200	34205	-67973
307	482	200	200	34205	-67973
308	481	200	200	34258	-67973
309	484	200	200	34258	-67898
310	485	200	200	34258	-67898
311	484	200	200	34312	-67898
312	485	200	200	34312	-67822
313	485	200	200	34312	-67822
314	486	200	200	34364	-67822
315	485	200	200	34364	-67747
316	485	200	200	34364	-67747
317	485	200	200	34417	-67747
318	484	200	200	34417	-67672
319	485	200	200	34417	-67672
320	485	200	200	34467	-67672
321	485	200	200	34467	-67597
322	485	200	200	34467	-67597
323	485	200	200	34517	-67597
324	485	200	200	34517	-67522
325	485	200	200	34517	-67522
326	484	200	200	34571	-67522
327	485	200	200	34571	-67450
328	486	200	200	34571	-67450
329	486	200	200	34622	-67450
330	489	200	200	34622	-67376
331	489	200	200	34622	-67376
332	489	200	200	34675	-67376
333	488	200	200	34675	-67299
334	489	200	200	34675	-67299
335	489	200	200	34727	-67299
336	489	200	200	34727	-67225
337	488	200	200	34727	-67225
338	488	200	200	34776	-67225
339	490	200	200	34776	-67150
340	488	200	200	34776	-67150
341	489	200	200	34828	-67150
342	489	200	200	34828	-67079
343	489	200	200	34828	-67079
344	488	200	200	34878	-67079
345	489	200	200	34878	-67004
346	489	200	200	34878	-67004
347	489	200	200	34931	-67004
348	490	200	200	34931	-66933
349	492	200	200	34931	-66933
350	493	200	200	34981	-66933
351	493	200	200	34981	-66858
352	493	200	200	34981	-66858
353	493	200	200	35028	-66858
354	493	200	200	35028	-66785
355	492	200	200	35028	-66785
356	493	200	200	35079	-66785
357	493	200	200	35079	-66713
358	493	200	200	35079	-66713
359	492	200	200	35130	-66713
360	493	200	200	35130	-66640
361	492	200	200	35130	-66640
362	492	200	200	35178	-66640
363	493	200	200	35178	-66570
364	492	200	200	35178	-66570
365	493	200	200	35229	-66570
366	493	200	200	35229	-66570
367	497	200	200	35229	-66494
368	497	200	200	35278	-66494
369	497	200	200	35278	-66494
370	496	200	200	35278	-66423
371	497	200	200	35330	-66423
372	497	200	200	35330	-66423
373	496	200	200	35330	-66349
374	497	200	200	35382	-66349
375	497	200	200	35382	-66349
376	497	200	200	35382	-66276
377	497	200	200	35429	-66276
378	497	200	200	35429	-66276
379	497	200	200	35429	-66201
380	497	200	200	35477	-66201
381	497	200	200	35477	-66201
382	497	200	200	35477	-66132
383	497	200	200	35527	-66132
384	497	200	200	35527	-66132
385	498	200	200	35527	-66057
386	500	200	200	35574	-66057
387	500	200	200	35574	-66057
388	501	200	200	35574	-65984
389	502	200	200	35627	-65984
390	501	200	200	35627	-65984
391	501	200	200	35627	-65910
392	501	200	200	35678	-65910
393	501	200	200	35678	-65910
394	501	200	200	35678	-65835
395	501	200	200	35728	-65835
396	501	200	200	35728	-65835
397	501	200	200	35728	-65763
398	501	200	200	35781	-65763
399	501	200	200	35781	-65763
400	501	200	200	35781	-65690
401	501	200	200	35831	-65690
402	500	200	200	35831	-65690
403	502	200	200	35831	-65617
404	502	200	200	35884	-65617
405	505	200	200	35884	-65617
406	504	200	200	35884	-65542
407	503	200	200	35936	-65542
408	504	200	200	35936	-65542
409	505	200	200	35936	-65469
410	505	200	200	35989	-65469
411	505	200	200	35989	-65469
412	505	200	200	35989	-65398
413	505	200	200	36043	-65398
414	505	200	200	36043	-65398
415	505	200	200	36043	-65325
416	504	200	200	36043	-65325
417	505	200	200	36095	-65325
418	505	200	200	36095	-65250
419	505	200	200	36095	-65250
420	506	200	200	36147	-65250
421	505	200	200	36147	-65178
422	507	200	200	36147	-65178
423	507	200	200	36198	-65178
424	508	200	200	36198	-65105
425	509	200	200	36198	-65105
426	508	200	200	36250	-65105
427	508	200	200	36250	-65036
428	509	200	200	36250	-65036
429	508	200	200	36303	-65036
430	509	200	200	36303	-64962
431	509	200	200	36303	-64962
432	509	200	200	36358	-64962
433	509	200	200	36358	-64892
434	509	200	200	36358	-64892
435	509	200	200	36411	-64892
436	508	200	200	36411	-64817
437	508	200	200	36411	-64817
438	509	200	200	36465	-64817
439	508	200	200	36465	-64746
440	511	200	200	36465	-64746
441	513	200	200	36516	-64746
442	513	200	200	36516	-64674
443	513	200	200	36516	-64674
444	513	200	200	36567	-64674
445	513	200	200	36567	-64602
446	513	200	200	36567	-64602
447	513	200	200	36621	-64602
448	513	200	200	36621	-64532
449	513	200	200	36621	-64532
450	514	200	200	36673	-64532
451	513	200	200	36673	-64458
452	513	200	200	36673	-64458
453	513	200	200	36726	-64458
454	513	200	200	36726	-64387
455	513	200	200	36726	-64387
456	513	200	200	36779	-64387
457	513	200	200	36779	-64315
458	512	200	200	36779	-64315
459	516	200	200	36829	-64315
460	516	200	200	36829	-64243
461	517	200	200	36829	-64243
462	517	200	200	36882	-64243
463	517	200	200	36882	-64167
464	517	200	200	36882	-64167
465	517	200	200	36933	-64167
466	517	200	200	36933	-64098
467	517	200	200	36933	-64098
468	517	200	200	36986	-64098
469	516	200	200	36986	-64023
470	516	200	200	36986	-64023
471	516	200	200	37036	-64023
472	516	200	200	37036	-63952
473	516	200	200	37036	-63952
474	517	200	200	37084	-63952
475	517	200	200	37084	-63877
476	517	200	200	37084	-63877
477	520	200	200	37137	-63877
478	520	200	200	37137	-63804
479	520	200	200	37137	-63804
480	520	200	200	37186	-63804
481	521	200	200	37186	-63729
482	522	200	200	37186	-63729
483	521	200	200	37234	-63729
484	522	200	200	37234	-63729
485	522	200	200	37234	-63656
486	521	200	200	37286	-63656
487	521	200	200	37286	-63656
488	521	200	200	37286	-63583
489	521	200	200	37336	-63583
490	520	200	200	37336	-63583
491	520	200	200	37336	-63510
492	520	200	200	37389	-63510
493	521	200	200	37389	-63510
494	523	200	200	37389	-63437
495	524	200	200	37439	-63437
496	525	200	200	37439	-63437
497	524	200	200	37439	-63367
498	524	200	200	37486	-63367
499	525	200	200	37486	-63367
500	525	200	200	37486	-63295
501	525	200	200	37537	-63295
502	525	200	200	37537	-63295
503	525	200	200	37537	-63222
504	525	200	200	37587	-63222
505	525	200	200	37587	-63222
506	525	200	200	37587	-63149
507	524	200	200	37637	-63149
508	525	200	200	37637	-63149
509	525	200	200	37637	-63076
510	525	200	200	37690	-63076
511	524	200	200	37690	-63076
512	524	200	200	37690	-63008
513	527	200	200	37741	-63008
514	528	200	200	37741	-63008
515	529	200	200	37741	-62936
516	529	200	200	37795	-62936
517	529	200	200	37795	-62936
518	529	200	200	37795	-62866
519	529	200	200	37847	-62866
520	529	200	200	37847	-62866
521	529	200	200	37847	-62792
522	529	200	200	37898	-62792
523	529	200	200	37898	-62792
524	529	200	200	37898	-62723
525	529	200	200	37951	-62723
526	529	200	200	37951	-62723
527	528	200	200	37951	-62650
528	529	200	200	38004	-62650
529	528	200	200	38004	-62650
530	529	200	200	38004	-62581
531	532	200	200	38059	-62581
532	533	200	200	38059	-62581
533	534	200	200	38059	-62509
534	533	200	200	38059	-62509
535	533	200	200	38112	-62509
536	533	200	200	38112	-62440
537	533	200	200	38112	-62440
538	533	200	200	38164	-62440
539	533	200	200	38164	-62365
540	533	200	200	38164	-62365
541	533	200	200	38214	-62365
542	533	200	200	38214	-62296
543	532	200	200	38214	-62296
544	532	200	200	38266	-62296
545	532	200	200	38266	-62223
546	532	200	200	38266	-62223
547	531	200	200	38319	-62223
548	532	200	200	38319	-62150
549	535	200	200	38319	-62150
550	537	200	200	38375	-62150
551	537	200	200	38375	-62079
552	537	200	200	38375	-62079
553	536	200	200	38429	-62079
554	536	200	200	38429	-62008
555	537	200	200	38429	-62008
556	536	200	200	38481	-62008
557	537	200	200	38481	-61936
558	537	200	200	38481	-61936
559	537	200	200	38533	-61936
560	537	200	200	38533	-61862
561	537	200	200	38533	-61862
562	537	200	200	38583	-61862
563	537	200	200	38583	-61790
564	536	200	200	38583	-61790
565	536	200	200	38637	-61790
566	541	200	200	38637	-61716
567	541	200	200	38637	-61716
568	540	200	200	38691	-61716
569	541	200	200	38691	-61644
570	541	200	200	38691	-61644
571	540	200	200	38741	-61644
572	540	200	200	38741	-61571
573	541	200	200	38741	-61571
574	541	200	200	38795	-61571
575	541	200	200	38795	-61498
576	541	200	200	38795	-61498
577	541	200	200	38846	-61498
578	541	200	200	38846	-61423
579	541	200	200	38846	-61423
580	541	200	200	38899	-61423
581	541	200	200	38899	-61351
582	542	200	200	38899	-61351
583	545	200	200	38952	-61351
584	545	200	200	38952	-61280
585	544	200	200	38952	-61280
586	545	200	200	39004	-61280
587	543	200	200	39004	-61208
588	544	200	200	39004	-61208
589	545	200	200	39056	-61208
590	544	200	200	39056	-61133
591	544	200	200	39056	-61133
592	545	200	200	39106	-61133
593	545	200	200	39106	-61060
594	545	200	200	39106	-61060
595	545	200	200	39156	-61060
596	545	200	200	39156	-60988
597	545	200	200	39156	-60988
598	545	200	200	39210	-60988
599	545	200	200	39210	-60918
600	547	200	200	39210	-60918
601	548	200	200	39258	-60918
602	549	200	200	39258	-60918
603	549	200	200	39258	-60844
604	548	200	200	39308	-60844
605	548	200	200	39308	-60844
606	547	200	200	39308	-60771
607	547	200	200	39359	-60771
608	548	200	200	39359	-60771
609	549	200	200	39359	-60699
610	549	200	200	39411	-60699
611	549	200	200	39411	-60699
612	549	200	200	39411	-60627
613	548	200	200	39464	-60627
614	549	200	200	39464	-60627
615	549	200	200	39464	-60556
616	549	200	200	39514	-60556
617	553	200	200	39514	-60556
618	554	200	200	39514	-60484
619	554	200	200	39563	-60484
620	553	200	200	39563	-60484
621	553	200	200	39563	-60415
622	553	200	200	39615	-60415
623	553	200	200	39615	-60415
624	552	200	200	39615	-60338
625	551	200	200	39666	-60338
626	552	200	200	39666	-60338
627	551	200	200	39666	-60268
628	552	200	200	39720	-60268
629	553	200	200	39720	-60268
630	553	200	200	39720	-60195
631	554	200	200	39773	-60195
632	552	200	200	39773	-60195
633	553	200	200	39773	-60122
634	553	200	200	39826	-60122
635	558	200	200	39826	-60122
636	558	200	200	39826	-60048
637	557	200	200	39880	-60048
638	558	200	200	39880	-60048
639	558	200	200	39880	-59978
640	557	200	200	39933	-59978
641	557	200	200	39933	-59978
642	557	200	200	39933	-59904
643	557	200	200	39988	-59904
644	557	200	200	39988	-59904
645	557	200	200	39988	-59832
646	556	200	200	40042	-59832
647	557	200	200	40042	-59832
648	557	200	200	40042	-59757
649	557	200	200	40097	-59757
650	557	200	200	40097	-59757
651	557	200	200	40097	-59682
652	559	200	200	40152	-59682
653	560	200	200	40152	-59682
654	561	200	200	40152	-59610
655	561	200	200	40152	-59610
656	560	200	200	40206	-59610
657	560	200	200	40206	-59537
658	561	200	200	40206	-59537
659	560	200	200	40259	-59537
660	560	200	200	40259	-59464
661	561	200	200	40259	-59464
662	560	200	200	40312	-59464
663	560	200	200	40312	-59389
664	561	200	200	40312	-59389
665	560	200	200	40367	-59389
666	561	200	200	40367	-59316
667	561	200	200	40367	-59316
668	561	200	200	40423	-59316
669	563	200	200	40423	-59245
670	565	200	200	40423	-59245
671	563	200	200	40478	-59245
672	563	200	200	40478	-59173
673	565	200	200	40478	-59173
674	563	200	200	40532	-59173
675	564	200	200	40532	-59097
676	565	200	200	40532	-59097
677	564	200	200	40586	-59097
678	564	200	200	40586	-59024
679	564	200	200	40586	-59024
680	564	200	200	40638	-59024
681	564	200	200	40638	-58952
682	565	200	200	40638	-58952
683	565	200	200	40694	-58952
684	565	200	200	40694	-58882
685	565	200	200	40694	-58882
686	564	200	200	40748	-58882
687	568	200	200	40748	-58808
688	568	200	200	40748	-58808
689	568	200	200	40801	-58808
690	569	200	200	40801	-58738
691	569	200	200	40801	-58738
692	569	200	200	40857	-58738
693	569	200	200	40857	-58665
694	568	200	200	40857	-58665
695	567	200	200	40909	-58665
696	569	200	200	40909	-58593
697	569	200	200	40909	-58593
698	570	200	200	40963	-58593
699	569	200	200	40963	-58522
700	570	200	200	40963	-58522
701	569	200	200	41017	-58522
702	569	200	200	41017	-58451
703	572	200	200	41017	-58451
704	573	200	200	41072	-58451
705	573	200	200	41072	-58382
706	572	200	200	41072	-58382
707	572	200	200	41124	-58382
708	572	200	200	41124	-58307
709	571	200	200	41124	-58307
710	572	200	200	41174	-58307
711	572	200	200	41174	-58237
712	572	200	200	41174	-58237
713	573	200	200	41230	-58237
714	573	200	200	41230	-58165
715	573	200	200	41230	-58165
716	573	200	200	41282	-58165
717	573	200	200	41282	-58093
718	576	200	200	41282	-58093
719	577	200	200	41333	-58093
720	577	200	200	41333	-58093
721	577	200	200	41333	-58018
722	578	200	200	41387	-58018
723	578	200	200	41387	-58018
724	578	200	200	41387	-57950
725	578	200	200	41440	-57950
726	578	200	200	41440	-57950
727	577	200	200	41440	-57876
728	578	200	200	41495	-57876
729	578	200	200	41495	-57876
730	576	200	200	41495	-57806
731	577	200	200	41547	-57806
732	578	200	200	41547	-57806
733	576	200	200	41547	-57732
734	577	200	200	41597	-57732
735	579	200	200	41597	-57732
736	580	200	200	41597	-57660
737	580	200	200	41653	-57660
738	582	200	200	41653	-57660
739	580	200	200	41653	-57586
740	581	200	200	41704	-57586
741	581	200	200	41704	-57586
742	580	200	200	41704	-57514
743	579	200	200	41757	-57514
744	581	200	200	41757	-57514
745	580	200	200	41757	-57441
746	580	200	200	41811	-57441
747	582	200	200	41811	-57441
748	579	200	200	41811	-57368
749	580	200	200	41865	-57368
750	581	200	200	41865	-57368
751	582	200	200	41865	-57294
752	584	200	200	41922	-57294
753	585	200	200	41922	-57294
754	585	200	200	41922	-57224
755	585	200	200	41976	-57224
756	585	200	200	41976	-57224
757	585	200	200	41976	-57152
758	585	200	200	42033	-57152
759	585	200	200	42033	-57152
760	585	200	200	42033	-57078
761	585	200	200	42089	-57078
762	585	200	200	42089	-57078
763	585	200	200	42089	-57004
764	585	200	200	42145	-57004
765	584	200	200	42145	-57004
766	585	200	200	42145	-56930
767	585	200	200	42202	-56930
768	587	200	200	42202	-56930
769	590	200	200	42202	-56861
770	590	200	200	42202	-56861
771	590	200	200	42258	-56861
772	589	200	200	42258	-56787
773	589	200	200	42258	-56787
774	589	200	200	42312	-56787
775	589	200	200	42312	-56717
776	589	200	200	42312	-56717
777	589	200	200	42367	-56717
778	588	200	200	42367	-56643
779	587	200	200	42367	-56643
780	588	200	200	42423	-56643
781	589	200	200	42423	-56573
782	589	200	200	42423	-56573
783	589	200	200	42481	-56573
784	590	200	200	42481	-56499
785	593	200	200	42481	-56499
786	593	200	200	42537	-56499
787	594	200	200	42537	-56428
788	594	200	200	42537	-56428
789	594	200	200	42594	-56428
790	594	200	200	42594	-56356
791	594	200	200	42594	-56356
792	593	200	200	42649	-56356
793	594	200	200	42649	-56285
794	593	200	200	42649	-56285
795	593	200	200	42703	-56285
796	593	200	200	42703	-56210
797	593	200	200	42703	-56210
798	593	200	200	42760	-56210
799	594	200	200	42760	-56139
800	597	200	200	42760	-56139
801	595	200	200	42815	-56139
802	596	200	200	42815	-56068
803	596	200	200	42815	-56068
804	597	200	200	42871	-56068
805	597	200	200	42871	-55993
806	597	200	200	42871	-55993
807	597	200	200	42926	-55993
808	598	200	200	42926	-55922
809	597	200	200	42926	-55922
810	597	200	200	42981	-55922
811	596	200	200	42981	-55848
812	597	200	200	42981	-55848
813	597	200	200	43036	-55848
814	596	200	200	43036	-55778
815	595	200	200	43036	-55778
816	601	200	200	43090	-55778
817	601	200	200	43090	-55702
818	601	200	200	43090	-55702
819	600	200	200	43144	-55702
820	600	200	200	43144	-55631
821	600	200	200	43144	-55631
822	601	200	200	43197	-55631
823	601	200	200	43197	-55631
824	600	200	200	43197	-55556
825	600	200	200	43250	-55556
826	601	200	200	43250	-55556
827	601	200	200	43250	-55485
828	601	200	200	43306	-55485
829	601	200	200	43306	-55485
830	601	200	200	43306	-55411
831	600	200	200	43358	-55411
832	600	200	200	43358	-55411
833	602	200	200	43358	-55338
834	604	200	200	43411	-55338
835	605	200	200	43411	-55338
836	604	200	200	43411	-55264
837	605	200	200	43463	-55264
838	605	200	200	43463	-55264
839	605	200	200	43463	-55193
840	605	200	200	43517	-55193
841	605	200	200	43517	-55193
842	605	200	200	43517	-55122
843	605	200	200	43572	-55122
844	605	200	200	43572	-55122
845	604	200	200	43572	-55049
846	604	200	200	43622	-55049
847	605	200	200	43622	-55049
848	604	200	200	43622	-54974
849	608	200	200	43673	-54974
850	608	200	200	43673	-54974
851	609	200	200	43673	-54901
852	608	200	200	43726	-54901
853	608	200	200	43726	-54901
854	609	200	200	43726	-54831
855	609	200	200	43777	-54831
856	609	200	200	43777	-54831
857	609	200	200	43777	-54759
858	609	200	200	43832	-54759
859	608	200	200	43832	-54759
860	609	200	200	43832	-54688
861	610	200	200	43885	-54688
862	610	200	200	43885	-54688
863	609	200	200	43885	-54616
864	608	200	200	43941	-54616
865	609	200	200	43941	-54616
866	613	200	200	43941	-54546
867	612	200	200	43996	-54546
868	614	200	200	43996	-54546
869	613	200	200	43996	-54474
870	613	200	200	44050	-54474
871	613	200	200	44050	-54474
872	613	200	200	44050	-54404
873	612	200	200	44105	-54404
874	614	200	200	44105	-54404
875	613	200	200	44105	-54332
876	613	200	200	44105	-54332
877	613	200	200	44161	-54332
878	613	200	200	44161	-54264
879	612	200	200	44161	-54264
880	613	200	200	44217	-54264
881	614	200	200	44217	-54189
882	617	200	200	44217	-54189
883	617	200	200	44274	-54189
884	617	200	200	44274	-54120
885	616	200	200	44274	-54120
886	617	200	200	44330	-54120
887	618	200	200	44330	-54049
888	617	200	200	44330	-54049
889	617	200	200	44383	-54049
890	617	200	200	44383	-53977
891	617	200	200	44383	-53977
892	617	200	200	44437	-53977
893	618	200	200	44437	-53904
894	617	200	200	44437	-53904
895	616	200	200	44492	-53904
896	617	200	200	44492	-53835
897	617	200	200	44492	-53835
898	618	200	200	44548	-53835
899	622	200	200	44548	-53762
900	621	200	200	44548	-53762
901	620	200	200	44603	-53762
902	621	200	200	44603	-53691
903	621	200	200	44603	-53691
904	621	200	200	44659	-53691
905	622	200	200	44659	-53618
906	621	200	200	44659	-53618
907	621	200	200	44712	-53618
908	621	200	200	44712	-53544
909	620	200	200	44712	-53544
910	621	200	200	44766	-53544
911	621	200	200	44766	-53473
912	621	200	200	44766	-53473
913	621	200	200	44822	-53473
914	623	200	200	44822	-53401
915	625	200	200	44822	-53401
916	625	200	200	44873	-53401
917	626	200	200	44873	-53329
918	625	200	200	44873	-53329
919	625	200	200	44928	-53329
920	625	200	200	44928	-53256
921	624	200	200	44928	-53256
922	624	200	200	44982	-53256
923	624	200	200	44982	-53184
924	625	200	200	44982	-53184
925	625	200	200	45037	-53184
926	625	200	200	45037	-53115
927	625	200	200	45037	-53115
928	626	200	200	45092	-53115
929	626	200	200	45092	-53044
930	625	200	200	45092	-53044
931	625	200	200	45146	-53044
932	626	200	200	45146	-52971
933	629	200	200	45146	-52971
934	630	200	200	45200	-52971
935	629	200	200	45200	-52899
936	628	200	200	45200	-52899
937	628	200	200	45251	-52899
938	629	200	200	45251	-52828
939	629	200	200	45251	-52828
940	629	200	200	45304	-52828
941	629	200	200	45304	-52828
942	629	200	200	45304	-52761
943	629	200	200	45360	-52761
944	629	200	200	45360	-52761
945	630	200	200	45360	-52690
946	629	200	200	45410	-52690
947	629	200	200	45410	-52690
948	629	200	200	45410	-52622
949	630	200	200	45462	-52622
950	633	200	200	45462	-52622
951	633	200	200	45462	-52549
952	634	200	200	45513	-52549
953	633	200	200	45513	-52549
954	634	200	200	45513	-52482
955	633	200	200	45566	-52482
956	633	200	200	45566	-52482
957	634	200	200	45566	-52411
958	632	200	200	45620	-52411
959	634	200	200	45620	-52411
960	633	200	200	45620	-52344
961	634	200	200	45669	-52344
962	633	200	200	45669	-52344
963	634	200	200	45669	-52275
964	633	200	200	45719	-52275
965	634	200	200	45719	-52275
966	633	200	200	45719	-52209
967	637	200	200	45771	-52209
968	638	200	200	45771	-52209
969	638	200	200	45771	-52136
970	636	200	200	45821	-52136
971	638	200	200	45821	-52136
972	637	200	200	45821	-52070
973	638	200	200	45876	-52070
974	638	200	200	45876	-52070
975	637	200	200	45876	-52001
976	636	200	200	45928	-52001
977	638	200	200	45928	-52001
978	638	200	200	45928	-51932
979	638	200	200	45981	-51932
980	638	200	200	45981	-51932
981	637	200	200	45981	-51862
982	637	200	200	46035	-51862
983	638	200	200	46035	-51862
984	637	200	200	46035	-51798
985	638	200	200	46085	-51798
986	642	200	200	46085	-51798
987	642	200	200	46085	-51727
988	640	200	200	46139	-51727
989	642	200	200	46139	-51727
990	641	200	200	46139	-51660
991	642	200	200	46192	-51660
992	641	200	200	46192	-51660
993	641	200	200	46192	-51591
994	641	200	200	46192	-51591
995	641	200	200	46246	-51591
996	641	200	200	46246	-51523
997	642	200	200	46246	-51523
998	641	200	200	46300	-51523
999	641	200	200	46300	-51453
1000	641	200	200	46300	-51453
1001	640	200	200	46352	-51453
1002	641	200	200	46352	-51387
1003	642	200	200	46352	-51387
1004	642	200	200	46402	-51387
1005	641	200	200	46402	-51318
1006	642	200	200	46402	-51318
1007	644	200	200	46453	-51318
1008	646	200	200	46453	-51251
1009	645	200	200	46453	-51251
1010	645	200	200	46506	-51251
1011	646	200	200	46506	-51182
1012	646	200	200	46506	-51182
1013	645	200	200	46560	-51182
1014	646	200	200	46560	-51116
1015	645	200	200	46560	-51116
1016	646	200	200	46615	-51116
1017	645	200	200	46615	-51051
1018	645	200	200	46615	-51051
1019	645	200	200	46667	-51051
1020	645	200	200	46667	-50985
1021	646	200	200	46667	-50985
1022	645	200	200	46718	-50985
1023	646	200	200	46718	-50917
1024	645	200	200	46718	-50917
1025	646	200	200	46768	-50917
1026	644	200	200	46768	-50851
1027	646	200	200	46768	-50851
1028	645	200	200	46820	-50851
1029	645	200	200	46820	-50784
1030	645	200	200	46820	-50784
1031	645	200	200	46873	-50784
1032	646	200	200	46873	-50723
1033	649	200	200	46873	-50723
1034	650	200	200	46921	-50723
1035	650	200	200	46921	-50656
1036	649	200	200	46921	-50656
1037	650	200	200	46973	-50656
1038	650	200	200	46973	-50594
1039	650	200	200	46973	-50594
1040	649	200	200	47024	-50594
1041	649	200	200	47024	-50529
1042	650	200	200	47024	-50529
1043	649	200	200	47073	-50529
1044	649	200	200	47073	-50467
1045	650	200	200	47073	-50467
1046	650	200	200	47123	-50467
1047	650	200	200	47123	-50404
1048	650	200	200	47123	-50404
1049	649	200	200	47172	-50404
1050	650	200	200	47172	-50342
1051	649	200	200	47172	-50342
1052	649	200	200	47224	-50342
1053	649	200	200	47224	-50280
1054	649	200	200	47224	-50280
1055	649	200	200	47272	-50280
1056	649	200	200	47272	-50219
1057	650	200	200	47272	-50219
1058	649	200	200	47317	-50219
1059	650	200	200	47317	-50219
1060	650	200	200	47317	-50160
1061	649	200	200	47365	-50160
1062	651	200	200	47365	-50160
1063	653	200	200	47365	-50094
1064	653	200	200	47414	-50094
1065	654	200	200	47414	-50094
1066	654	200	200	47414	-50035
1067	653	200	200	47458	-50035
1068	654	200	200	47458	-50035
1069	654	200	200	47458	-49974
1070	653	200	200	47506	-49974
1071	654	200	200	47506	-49974
1072	654	200	200	47506	-49914
1073	653	200	200	47553	-49914
1074	653	200	200	47553	-49914
1075	654	200	200	47553	-49852
1076	653	200	200	47601	-49852
1077	654	200	200	47601	-49852
1078	653	200	200	47601	-49794
1079	653	200	200	47649	-49794
1080	654	200	200	47649	-49794
1081	654	200	200	47649	-49736
1082	654	200	200	47693	-49736
1083	653	200	200	47693	-49736
1084	653	200	200	47693	-49676
1085	652	200	200	47736	-49676
1086	654	200	200	47736	-49676
1087	652	200	200	47736	-49620
1088	654	200	200	47783	-49620
1089	654	200	200	47783	-49620
1090	653	200	200	47783	-49561
1091	653	200	200	47827	-49561
1092	652	200	200	47827	-49561
1093	653	200	200	47827	-49505
1094	654	200	200	47871	-49505
1095	654	200	200	47871	-49505
1096	653	200	200	47871	-49447
1097	655	200	200	47919	-49447
1098	656	200	200	47919	-49447
1099	657	200	200	47919	-49391
1100	658	200	200	47965	-49391
1101	658	200	200	47965	-49391
1102	657	200	200	47965	-49336
1103	658	200	200	48009	-49336
1104	658	200	200	48009	-49336
1105	658	200	200	48009	-49279
1106	658	200	200	48056	-49279
1107	657	200	200	48056	-49279
1108	656	200	200	48056	-49224
1109	658	200	200	48101	-49224
1110	658	200	200	48101	-49224
1111	658	200	200	48101	-49168
1112	658	200	200	48101	-49168
1113	658	200	200	48144	-49168
1114	657	200	200	48144	-49112
1115	658	200	200	48144	-49112
1116	657	200	200	48190	-49112
1117	657	200	200	48190	-49058
1118	658	200	200	48190	-49058
1119	657	200	200	48237	-49058
1120	659	200	200	48237	-49005
1121	658	200	200	48237	-49005
1122	657	200	200	48283	-49005
1123	657	200	200	48283	-48951
1124	658	200	200	48283	-48951
1125	658	200	200	48328	-48951
1126	658	200	200	48328	-48896
1127	658	200	200	48328	-48896
1128	658	200	200	48374	-48896
1129	658	200	200	48374	-48840
1130	657	200	200	48374	-48840
1131	658	200	200	48418	-48840
1132	658	200	200	48418	-48787
1133	658	200	200	48418	-48787
1134	658	200	200	48460	-48787
1135	658	200	200	48460	-48733
1136	657	200	200	48460	-48733
1137	658	200	200	48504	-48733
1138	657	200	200	48504	-48683
1139	657	200	200	48504	-48683
1140	657	200	200	48549	-48683
1141	657	200	200	48549	-48631
1142	657	200	200	48549	-48631
1143	658	200	200	48594	-48631
1144	657	200	200	48594	-48578
1145	658	200	200	48594	-48578
1146	657	200	200	48639	-48578
1147	659	200	200	48639	-48528
1148	657	200	200	48639	-48528
1149	658	200	200	48684	-48528
1150	657	200	200	48684	-48475
1151	657	200	200	48684	-48475
1152	658	200	200	48726	-48475
1153	657	200	200	48726	-48424
1154	658	200	200	48726	-48424
1155	658	200	200	48769	-48424
1156	660	200	200	48769	-48374
1157	661	200	200	48769	-48374
1158	662	200	200	48811	-48374
1159	661	200	200	48811	-48322
1160	661	200	200	48811	-48322
1161	662	200	200	48854	-48322
1162	661	200	200	48854	-48273
1163	662	200	200	48854	-48273
1164	662	200	200	48898	-48273
1165	661	200	200	48898	-48223
1166	662	200	200	48898	-48223
1167	662	200	200	48942	-48223
1168	660	200	200	48942	-48174
1169	660	200	200	48942	-48174
1170	662	200	200	48985	-48174
1171	661	200	200	48985	-48128
1172	662	200	200	48985	-48128
1173	662	200	200	49029	-48128
1174	660	200	200	49029	-48077
1175	661	200	200	49029	-48077
1176	660	200	200	49072	-48077
1177	662	200	200	49072	-48028
1178	662	200	200	49072	-48028
1179	661	200	200	49115	-48028
1180	662	200	200	49115	-48028
1181	662	200	200	49115	-47982
1182	662	200	200	49158	-47982
1183	662	200	200	49158	-47982
1184	661	200	200	49158	-47934
1185	660	200	200	49202	-47934
1186	662	200	200	49202	-47934
1187	662	200	200	49202	-47885
1188	662	200	200	49245	-47885
1189	662	200	200	49245	-47885
1190	661	200	200	49245	-47836
1191	662	200	200	49286	-47836
1192	660	200	200	49286	-47836
1193	661	200	200	49286	-47786
1194	662	200	200	49326	-47786
1195	661	200	200	49326	-47786
1196	659	200	200	49326	-47740
1197	662	200	200	49363	-47740
1198	661	200	200	49363	-47740
1199	662	200	200	49363	-47695
1200	661	200	200	49403	-47695
1201	660	200	200	49403	-47695
1202	661	200	200	49403	-47645
1203	661	200	200	49447	-47645
1204	662	200	200	49447	-47645
1205	662	200	200	49447	-47599
1206	661	200	200	49484	-47599
1207	661	200	200	49484	-47599
1208	662	200	200	49484	-47551
1209	661	200	200	49523	-47551
1210	662	200	200	49523	-47551
1211	662	200	200	49523	-47501
1212	661	200	200	49564	-47501
1213	661	200	200	49564	-47501
1214	662	200	200	49564	-47455
1215	661	200	200	49603	-47455
1216	662	200	200	49603	-47455
1217	662	200	200	49603	-47407
1218	662	200	200	49643	-47407
1219	662	200	200	49643	-47407
1220	661	200	200	49643	-47361
1221	661	200	200	49683	-47361
1222	661	200	200	49683	-47361
1223	662	200	200	49683	-47317
1224	661	200	200	49683	-47317
1225	662	200	200	49722	-47317
1226	662	200	200	49722	-47270
1227	661	200	200	49722	-47270
1228	662	200	200	49760	-47270
1229	662	200	200	49760	-47225
1230	661	200	200	49760	-47225
1231	662	200	200	49796	-47225
1232	662	200	200	49796	-47180
1233	661	200	200	49796	-47180
1234	661	200	200	49838	-47180
1235	662	200	200	49838	-47134
1236	661	200	200	49838	-47134
1237	662	200	200	49876	-47134
1238	662	200	200	49876	-47089
1239	662	200	200	49876	-47089
1240	661	200	200	49913	-47089
1241	661	200	200	49913	-47046
1242	661	200	200	49913	-47046
1243	660	200	200	49954	-47046
1244	661	200	200	49954	-47002
1245	661	200	200	49954	-47002
1246	661	200	200	49993	-47002
1247	661	200	200	49993	-46959
1248	662	200	200	49993	-46959
1249	661	200	200	50032	-46959
1250	662	200	200	50032	-46914
1251	661	200	200	50032	-46914
1252	662	200	200	50073	-46914
1253	661	200	200	50073	-46869
1254	661	200	200	50073	-46869
1255	661	200	200	50114	-46869
1256	661	200	200	50114	-46824
1257	662	200	200	50114	-46824
1258	661	200	200	50154	-46824
1259	661	200	200	50154	-46781
1260	661	200	200	50154	-46781
1261	662	200	200	50193	-46781
1262	661	200	200	50193	-46739
1263	661	200	200	50193	-46739
1264	662	200	200	50234	-46739
1265	662	200	200	50234	-46697
1266	662	200	200	50234	-46697
1267	661	200	200	50274	-46697
1268	662	200	200	50274	-46657
1269	660	200	200	50274	-46657
1270	661	200	200	50313	-46657
1271	661	200	200	50313	-46618
1272	662	200	200	50313	-46618
1273	661	200	200	50353	-46618
1274	660	200	200	50353	-46576
1275	660	200	200	50353	-46576
1276	661	200	200	50393	-46576
1277	661	200	200	50393	-46535
1278	662	200	200	50393	-46535
1279	661	200	200	50432	-46535
1280	660	200	200	50432	-46495
1281	662	200	200	50432	-46495
1282	661	200	200	50472	-46495
1283	662	200	200	50472	-46456
1284	662	200	200	50472	-46456
1285	661	200	200	50509	-46456
1286	661	200	200	50509	-46413
1287	661	200	200	50509	-46413
1288	661	200	200	50548	-46413
1289	662	200	200	50548	-46374
1290	662	200	200	50548	-46374
1291	660	200	200	50587	-46374
1292	662	200	200	50587	-46335
1293	662	200	200	50587	-46335
1294	662	200	200	50625	-46335
1295	662	200	200	50625	-46294
1296	662	200	200	50625	-46294
1297	660	200	200	50665	-46294
1298	662	200	200	50665	-46294
1299	662	200	200	50665	-46252
1300	662	200	200	50703	-46252
1301	662	200	200	50703	-46252
1302	661	200	200	50703	-46213
1303	661	200	200	50741	-46213
1304	662	200	200	50741	-46213
1305	660	200	200	50741	-46171
1306	662	200	200	50780	-46171
1307	662	200	200	50780	-46171
1308	661	200	200	50780	-46131
1309	662	200	200	50817	-46131
1310	660	200	200	50817	-46131
1311	661	200	200	50817	-46094
1312	662	200	200	50854	-46094
1313	661	200	200	50854	-46094
1314	662	200	200	50854	-46054
1315	662	200	200	50890	-46054
1316	661	200	200	50890	-46054
1317	662	200	200	50890	-46013
1318	662	200	200	50929	-46013
1319	661	200	200	50929	-46013
1320	659	200	200	50929	-45974
1321	662	200	200	50966	-45974
1322	661	200	200	50966	-45974
1323	662	200	200	50966	-45937
1324	661	200	200	51002	-45937
1325	662	200	200	51002	-45937
1326	662	200	200	51002	-45897
1327	661	200	200	51038	-45897
1328	662	200	200	51038	-45897
1329	661	200	200	51038	-45858
1330	661	200	200	51077	-45858
1331	661	200	200	51077	-45858
1332	661	200	200	51077	-45820
1333	661	200	200	51115	-45820
1334	660	200	200	51115	-45820
1335	661	200	200	51115	-45782
1336	661	200	200	51151	-45782
1337	661	200	200	51151	-45782
1338	661	200	200	51151	-45742
1339	661	200	200	51189	-45742
1340	657	200	200	51189	-45742
1341	657	200	200	51189	-45707
1342	657	200	200	51227	-45707
1343	658	200	200	51227	-45707
1344	658	200	200	51227	-45672
1345	658	200	200	51264	-45672
1346	658	200	200	51264	-45672
1347	658	200	200	51264	-45634
1348	658	200	200	51264	-45634
1349	658	200	200	51302	-45634
1350	658	200	200	51302	-45595
1351	658	200	200	51302	-45595
1352	658	200	200	51337	-45595
1353	657	200	200	51337	-45559
1354	657	200	200	51337	-45559
1355	658	200	200	51372	-45559
1356	658	200	200	51372	-45523
1357	658	200	200	51372	-45523
1358	657	200	200	51404	-45523
1359	657	200	200	51404	-45485
1360	658	200	200	51404	-45485
1361	658	200	200	51441	-45485
1362	658	200	200	51441	-45448
1363	657	200	200	51441	-45448
1364	658	200	200	51479	-45448
1365	657	200	200	51479	-45411
1366	657	200	200	51479	-45411
1367	657	200	200	51515	-45411
1368	658	200	200	51515	-45374
1369	658	200	200	51515	-45374
1370	658	200	200	51549	-45374
1371	657	200	200	51549	-45336
1372	658	200	200	51549	-45336
1373	658	200	200	51582	-45336
1374	657	200	200	51582	-45300
1375	658	200	200	51582	-45300
1376	657	200	200	51619	-45300
1377	658	200	200	51619	-45264
1378	658	200	200	51619	-45264
1379	658	200	200	51652	-45264
1380	657	200	200	51652	-45226
1381	658	200	200	51652	-45226
1382	657	200	200	51688	-45226
1383	658	200	200	51688	-45189
1384	658	200	200	51688	-45189
1385	658	200	200	51723	-45189
1386	658	200	200	51723	-45153
1387	658	200	200	51723	-45153
1388	658	200	200	51759	-45153
1389	657	200	200	51759	-45117
1390	658	200	200	51759	-45117
1391	658	200	200	51790	-45117
1392	658	200	200	51790	-45080
1393	658	200	200	51790	-45080
1394	658	200	200	51822	-45080
1395	657	200	200	51822	-45043
1396	659	200	200	51822	-45043
1397	658	200	200	51855	-45043
1398	658	200	200	51855	-45008
1399	658	200	200	51855	-45008
1400	658	200	200	51891	-45008
1401	657	200	200	51891	-44972
1402	658	200	200	51891	-44972
1403	658	200	200	51924	-44972
1404	658	200	200	51924	-44938
1405	658	200	200	51924	-44938
1406	658	200	200	51956	-44938
1407	657	200	200	51956	-44903
1408	658	200	200	51956	-44903
1409	658	200	200	51990	-44903
1410	658	200	200	51990	-44868
1411	657	200	200	51990	-44868
1412	658	200	200	52024	-44868
1413	657	200	200	52024	-44833
1414	657	200	200	52024	-44833
1415	658	200	200	52058	-44833
1416	658	200	200	52058	-44833
1417	656	200	200	52058	-44799
1418	658	200	200	52092	-44799
1419	658	200	200	52092	-44799
1420	658	200	200	52092	-44764
1421	658	200	200	52128	-44764
1422	658	200	200	52128	-44764
1423	656	200	200	52128	-44731
1424	657	200	200	52164	-44731
1425	658	200	200	52164	-44731
1426	658	200	200	52164	-44699
1427	657	200	200	52199	-44699
1428	657	200	200	52199	-44699
1429	657	200	200	52199	-44666
1430	658	200	200	52232	-44666
1431	658	200	200	52232	-44666
1432	658	200	200	52232	-44632
1433	658	200	200	52268	-44632
1434	657	200	200	52268	-44632
1435	658	200	200	52268	-44601
1436	658	200	200	52302	-44601
1437	658	200	200	52302	-44601
1438	658	200	200	52302	-44570
1439	658	200	200	52336	-44570
1440	658	200	200	52336	-44570
1441	658	200	200	52336	-44538
1442	657	200	200	52371	-44538
1443	658	200	200	52371	-44538
1444	657	200	200	52371	-44505
1445	657	200	200	52406	-44505
1446	654	200	200	52406	-44505
1447	654	200	200	52406	-44473
1448	654	200	200	52442	-44473
1449	654	200	200	52442	-44473
1450	653	200	200	52442	-44443
1451	653	200	200	52476	-44443
1452	653	200	200	52476	-44443
1453	653	200	200	52476	-44412
1454	653	200	200	52511	-44412
1455	654	200	200	52511	-44412
1456	653	200	200	52511	-44379
1457	653	200	200	52544	-44379
1458	652	200	200	52544	-44379
1459	653	200	200	52544	-44346
1460	652	200	200	52578	-44346
1461	653	200	200	52578	-44346
1462	654	200	200	52578	-44315
1463	653	200	200	52612	-44315
1464	653	200	200	52612	-44315
1465	653	200	200	52612	-44284
1466	654	200	200	52612	-44284
1467	653	200	200	52648	-44284
1468	653	200	200	52648	-44252
1469	653	200	200	52648	-44252
1470	654	200	200	52682	-44252
1471	653	200	200	52682	-44220
1472	654	200	200	52682	-44220
1473	652	200	200	52717	-44220
1474	653	200	200	52717	-44191
1475	652	200	200	52717	-44191
1476	654	200	200	52751	-44191
1477	653	200	200	52751	-44163
1478	654	200	200	52751	-44163
1479	654	200	200	52785	-44163
1480	654	200	200	52785	-44133
1481	652	200	200	52785	-44133
1482	653	200	200	52819	-44133
1483	654	200	200	52819	-44104
1484	654	200	200	52819	-44104
1485	654	200	200	52854	-44104
1486	654	200	200	52854	-44075
1487	651	200	200	52854	-44075
1488	653	200	200	52886	-44075
1489	654	200	200	52886	-44047
1490	653	200	200	52886	-44047
1491	654	200	200	52918	-44047
1492	654	200	200	52918	-44018
1493	652	200	200	52918	-44018
1494	652	200	200	52951	-44018
1495	654	200	200	52951	-43987
1496	653	200	200	52951	-43987
1497	654	200	200	52985	-43987
1498	654	200	200	52985	-43955
1499	653	200	200	52985	-43955
1500	652	200	200	53018	-43955
1501	654	200	200	53018	-43925
1502	653	200	200	53018	-43925
1503	654	200	200	53048	-43925
1504	654	200	200	53048	-43896
1505	653	200	200	53048	-43896
1506	652	200	200	53078	-43896
1507	654	200	200	53078	-43867
1508	653	200	200	53078	-43867
1509	653	200	200	53111	-43867
1510	654	200	200	53111	-43838
1511	653	200	200	53111	-43838
1512	653	200	200	53144	-43838
1513	653	200	200	53144	-43809
1514	652	200	200	53144	-43809
1515	653	200	200	53174	-43809
1516	654	200	200	53174	-43784
1517	653	200	200	53174	-43784
1518	653	200	200	53204	-43784
1519	652	200	200	53204	-43756
1520	654	200	200	53204	-43756
1521	653	200	200	53236	-43756
1522	654	200	200	53236	-43729
1523	654	200	200	53236	-43729
1524	654	200	200	53268	-43729
1525	652	200	200	53268	-43700
1526	654	200	200	53268	-43700
1527	654	200	200	53300	-43700
1528	653	200	200	53300	-43672
1529	653	200	200	53300	-43672
1530	653	200	200	53331	-43672
1531	653	200	200	53331	-43645
1532	653	200	200	53331	-43645
1533	653	200	200	53361	-43645
1534	654	200	200	53361	-43645
1535	653	200	200	53361	-43619
1536	653	200	200	53388	-43619
1537	653	200	200	53388	-43619
1538	654	200	200	53388	-43591
1539	654	200	200	53416	-43591
1540	653	200	200	53416	-43591
1541	653	200	200	53416	-43561
1542	653	200	200	53443	-43561
1543	654	200	200	53443	-43561
1544	653	200	200	53443	-43534
1545	652	200	200	53472	-43534
1546	653	200	200	53472	-43534
1547	653	200	200	53472	-43508
1548	654	200	200	53501	-43508
1549	653	200	200	53501	-43508
1550	653	200	200	53501	-43482
1551	653	200	200	53533	-43482
1552	653	200	200	53533	-43482
1553	653	200	200	53533	-43456
1554	653	200	200	53561	-43456
1555	654	200	200	53561	-43456
1556	654	200	200	53561	-43428
1557	654	200	200	53588	-43428
1558	653	200	200	53588	-43428
1559	650	200	200	53588	-43401
1560	650	200	200	53615	-43401
1561	650	200	200	53615	-43401
1562	649	200	200	53615	-43374
1563	649	200	200	53644	-43374
1564	648	200	200	53644	-43374
1565	649	200	200	53644	-43347
1566	649	200	200	53672	-43347
1567	649	200	200	53672	-43347
1568	650	200	200	53672	-43320
1569	649	200	200	53697	-43320
1570	650	200	200	53697	-43320
1571	649	200	200	53697	-43291
1572	650	200	200	53722	-43291
1573	649	200	200	53722	-43291
1574	650	200	200	53722	-43264
1575	649	200	200	53748	-43264
1576	649	200	200	53748	-43264
1577	650	200	200	53748	-43237
1578	649	200	200	53774	-43237
1579	650	200	200	53774	-43237
1580	650	200	200	53774	-43210
1581	649	200	200	53801	-43210
1582	650	200	200	53801	-43210
1583	650	200	200	53801	-43182
1584	649	200	200	53801	-43182
1585	649	200	200	53827	-43182
1586	649	200	200	53827	-43155
1587	649	200	200	53827	-43155
1588	649	200	200	53853	-43155
1589	650	200	200	53853	-43130
1590	649	200	200	53853	-43130
1591	648	200	200	53878	-43130
1592	649	200	200	53878	-43106
1593	648	200	200	53878	-43106
1594	649	200	200	53905	-43106
1595	650	200	200	53905	-43081
1596	649	200	200	53905	-43081
1597	649	200	200	53932	-43081
1598	650	200	200	53932	-43054
1599	649	200	200	53932	-43054
1600	649	200	200	53957	-43054
1601	650	200	200	53957	-43028
1602	649	200	200	53957	-43028
1603	649	200	200	53984	-43028
1604	650	200	200	53984	-43001
1605	648	200	200	53984	-43001
1606	648	200	200	54009	-43001
1607	650	200	200	54009	-42974
1608	650	200	200	54009	-42974
1609	650	200	200	54035	-42974
1610	650	200	200	54035	-42948
1611	649	200	200	54035	-42948
1612	648	200	200	54061	-42948
1613	649	200	200	54061	-42922
1614	650	200	200	54061	-42922
1615	650	200	200	54086	-42922
1616	649	200	200	54086	-42896
1617	650	200	200	54086	-42896
1618	649	200	200	54114	-42896
1619	650	200	200	54114	-42870
1620	650	200	200	54114	-42870
1621	650	200	200	54142	-42870
1622	648	200	200	54142	-42843
1623	650	200	200	54142	-42843
1624	650	200	200	54173	-42843
1625	650	200	200	54173	-42817
1626	650	200	200	54173	-42817
1627	650	200	200	54202	-42817
1628	648	200	200	54202	-42792
1629	650	200	200	54202	-42792
1630	650	200	200	54232	-42792
1631	649	200	200	54232	-42769
1632	649	200	200	54232	-42769
1633	649	200	200	54259	-42769
1634	650	200	200	54259	-42745
1635	650	200	200	54259	-42745
1636	649	200	200	54288	-42745
1637	650	200	200	54288	-42720
1638	649	200	200	54288	-42720
1639	650	200	200	54319	-42720
1640	649	200	200	54319	-42697
1641	650	200	200	54319	-42697
1642	649	200	200	54347	-42697
1643	649	200	200	54347	-42675
1644	649	200	200	54347	-42675
1645	649	200	200	54375	-42675
1646	650	200	200	54375	-42675
1647	649	200	200	54375	-42651
1648	650	200	200	54400	-42651
1649	649	200	200	54400	-42651
1650	650	200	200	54400	-42627
1651	650	200	200	54428	-42627
1652	650	200	200	54428	-42627
1653	650	200	200	54428	-42602
1654	650	200	200	54455	-42602
1655	650	200	200	54455	-42602
1656	650	200	200	54455	-42579
1657	649	200	200	54484	-42579
1658	649	200	200	54484	-42579
1659	650	200	200	54484	-42556
1660	650	200	200	54512	-42556
1661	650	200	200	54512	-42556
1662	650	200	200	54512	-42533
1663	649	200	200	54540	-42533
1664	649	200	200	54540	-42533
1665	650	200	200	54540	-42510
1666	648	200	200	54568	-42510
1667	646	200	200	54568	-42510
1668	645	200	200	54568	-42488
1669	646	200	200	54594	-42488
1670	646	200	200	54594	-42488
1671	645	200	200	54594	-42464
1672	646	200	200	54622	-42464
1673	645	200	200	54622	-42464
1674	646	200	200	54622	-42443
1675	645	200	200	54649	-42443
1676	645	200	200	54649	-42443
1677	646	200	200	54649	-42424
1678	645	200	200	54677	-42424
1679	646	200	200	54677	-42424
1680	645	200	200	54677	-42404
1681	646	200	200	54704	-42404
1682	645	200	200	54704	-42404
1683	646	200	200	54704	-42383
1684	646	200	200	54730	-42383
1685	646	200	200	54730	-42383
1686	645	200	200	54730	-42360
1687	646	200	200	54758	-42360
1688	646	200	200	54758	-42360
1689	645	200	200	54758	-42337
1690	646	200	200	54785	-42337
1691	646	200	200	54785	-42337
1692	645	200	200	54785	-42314
1693	645	200	200	54814	-42314
1694	646	200	200	54814	-42314
1695	645	200	200	54814	-42293
1696	646	200	200	54842	-42293
1697	646	200	200	54842	-42293
1698	646	200	200	54842	-42272
1699	646	200	200	54872	-42272
1700	646	200	200	54872	-42272
1701	645	200	200	54872	-42252
1702	646	200	200	54872	-42252
1703	646	200	200	54902	-42252
1704	646	200	200	54902	-42230
1705	645	200	200	54902	-42230
1706	646	200	200	54930	-42230
1707	645	200	200	54930	-42207
1708	646	200	200	54930	-42207
1709	646	200	200	54958	-42207
1710	645	200	200	54958	-42184
1711	646	200	200	54958	-42184
1712	646	200	200	54986	-42184
1713	646	200	200	54986	-42163
1714	646	200	200	54986	-42163
1715	646	200	200	55016	-42163
1716	645	200	200	55016	-42143
1717	645	200	200	55016	-42143
1718	646	200	200	55042	-42143
1719	645	200	200	55042	-42124
1720	645	200	200	55042	-42124
1721	646	200	200	55070	-42124
1722	646	200	200	55070	-42105
1723	644	200	200	55070	-42105
1724	646	200	200	55094	-42105
1725	644	200	200	55094	-42087
1726	646	200	200	55094	-42087
1727	646	200	200	55119	-42087
1728	645	200	200	55119	-42067
1729	644	200	200	55119	-42067
1730	644	200	200	55148	-42067
1731	644	200	200	55148	-42046
1732	646	200	200	55148	-42046
1733	646	200	200	55177	-42046
1734	646	200	200	55177	-42025
1735	646	200	200	55177	-42025
1736	645	200	200	55206	-42025
1737	645	200	200	55206	-42004
1738	646	200	200	55206	-42004
1739	646	200	200	55233	-42004
1740	646	200	200	55233	-41984
1741	646	200	200	55233	-41984
1742	646	200	200	55261	-41984
1743	645	200	200	55261	-41961
1744	646	200	200	55261	-41961
1745	645	200	200	55290	-41961
1746	645	200	200	55290	-41939
1747	645	200	200	55290	-41939
1748	645	200	200	55320	-41939
1749	645	200	200	55320	-41915
1750	645	200	200	55320	-41915
1751	645	200	200	55348	-41915
1752	645	200	200	55348	-41892
1753	646	200	200	55348	-41892
1754	645	200	200	55376	-41892
1755	646	200	200	55376	-41871
1756	645	200	200	55376	-41871
1757	646	200	200	55404	-41871
1758	646	200	200	55404	-41850
1759	646	200	200	55404	-41850
1760	646	200	200	55428	-41850
1761	646	200	200	55428	-41829
1762	646	200	200	55428	-41829
1763	645	200	200	55454	-41829
1764	645	200	200	55454	-41808
1765	646	200	200	55454	-41808
1766	645	200	200	55477	-41808
1767	645	200	200	55477	-41788
1768	646	200	200	55477	-41788
1769	646	200	200	55500	-41788
1770	646	200	200	55500	-41788
1771	646	200	200	55500	-41769
1772	646	200	200	55527	-41769
1773	645	200	200	55527	-41769
1774	646	200	200	55527	-41752
1775	645	200	200	55553	-41752
1776	645	200	200	55553	-41752
1777	646	200	200	55553	-41736
1778	645	200	200	55582	-41736
1779	646	200	200	55582	-41736
1780	645	200	200	55582	-41718
1781	646	200	200	55607	-41718
1782	645	200	200	55607	-41718
1783	646	200	200	55607	-41699
1784	646	200	200	55631	-41699
1785	645	200	200	55631	-41699
1786	646	200	200	55631	-41679
1787	644	200	200	55656	-41679
1788	645	200	200	55656	-41679
1789	646	200	200	55656	-41660
1790	646	200	200	55680	-41660
1791	645	200	200	55680	-41660
1792	646	200	200	55680	-41641
1793	645	200	200	55706	-41641
1794	646	200	200	55706	-41641
1795	646	200	200	55706	-41624
1796	645	200	200	55729	-41624
1797	646	200	200	55729	-41624
1798	646	200	200	55729	-41608
1799	645	200	200	55750	-41608
1800	646	200	200	55750	-41608
1801	646	200	200	55750	-41591
1802	645	200	200	55773	-41591
1803	645	200	200	55773	-41591
1804	646	200	200	55773	-41574
1805	645	200	200	55795	-41574
1806	646	200	200	55795	-41574
1807	646	200	200	55795	-41555
1808	645	200	200	55819	-41555
1809	645	200	200	55819	-41555
1810	646	200	200	55819	-41535
1811	645	200	200	55843	-41535
1812	645	200	200	55843	-41535
1813	646	200	200	55843	-41514
1814	645	200	200	55866	-41514
1815	644	200	200	55866	-41514
1816	642	200	200	55866	-41495
1817	641	200	200	55889	-41495
1818	640	200	200	55889	-41495
1819	642	200	200	55889	-41478
1820	641	200	200	55889	-41478
1821	641	200	200	55912	-41478
1822	642	200	200	55912	-41463
1823	642	200	200	55912	-41463
1824	641	200	200	55934	-41463
1825	641	200	200	55934	-41448
1826	642	200	200	55934	-41448
1827	642	200	200	55959	-41448
1828	641	200	200	55959	-41433
1829	642	200	200	55959	-41433
1830	642	200	200	55985	-41433
1831	641	200	200	55985	-41419
1832	642	200	200	55985	-41419
1833	642	200	200	56008	-41419
1834	642	200	200	56008	-41405
1835	642	200	200	56008	-41405
1836	642	200	200	56032	-41405
1837	641	200	200	56032	-41388
1838	642	200	200	56032	-41388
1839	641	200	200	56054	-41388
1840	642	200	200	56054	-41371
1841	641	200	200	56054	-41371
1842	641	200	200	56076	-41371
1843	641	200	200	56076	-41354
1844	641	200	200	56076	-41354
1845	642	200	200	56099	-41354
1846	641	200	200	56099	-41337
1847	642	200	200	56099	-41337
1848	641	200	200	56123	-41337
1849	641	200	200	56123	-41319
1850	642	200	200	56123	-41319
1851	642	200	200	56146	-41319
1852	642	200	200	56146	-41301
1853	642	200	200	56146	-41301
1854	641	200	200	56171	-41301
1855	642	200	200	56171	-41282
1856	642	200	200	56171	-41282
1857	642	200	200	56195	-41282
1858	642	200	200	56195	-41260
1859	642	200	200	56195	-41260
1860	641	200	200	56222	-41260
1861	642	200	200	56222	-41240
1862	642	200	200	56222	-41240
1863	641	200	200	56249	-41240
1864	641	200	200	56249	-41220
1865	642	200	200	56249	-41220
1866	641	200	200	56274	-41220
1867	641	200	200	56274	-41201
1868	642	200	200	56274	-41201
1869	642	200	200	56300	-41201
1870	642	200	200	56300	-41182
1871	642	200	200	56300	-41182
1872	641	200	200	56324	-41182
1873	641	200	200	56324	-41163
1874	641	200	200	56324	-41163
1875	641	200	200	56351	-41163
1876	641	200	200	56351	-41145
1877	642	200	200	56351	-41145
1878	641	200	200	56376	-41145
1879	642	200	200	56376	-41126
1880	642	200	200	56376	-41126
1881	641	200	200	56400	-41126
1882	641	200	200	56400	-41109
1883	641	200	200	56400	-41109
1884	641	200	200	56423	-41109
1885	642	200	200	56423	-41092
1886	642	200	200	56423	-41092
1887	640	200	200	56446	-41092
1888	642	200	200	56446	-41092
1889	642	200	200	56446	-41077
1890	642	200	200	56470	-41077
1891	642	200	200	56470	-41077
1892	642	200	200	56470	-41061
1893	641	200	200	56495	-41061
1894	642	200	200	56495	-41061
1895	642	200	200	56495	-41045
1896	642	200	200	56519	-41045
1897	641	200	200	56519	-41045
1898	642	200	200	56519	-41028
1899	641	200	200	56545	-41028
1900	642	200	200	56545	-41028
1901	642	200	200	56545	-41010
1902	642	200	200	56570	-41010
1903	641	200	200	56570	-41010
1904	641	200	200	56570	-40992
1905	641	200	200	56595	-40992
1906	642	200	200	56595	-40992
1907	642	200	200	56595	-40974
1908	642	200	200	56620	-40974
1909	641	200	200	56620	-40974
1910	641	200	200	56620	-40957
1911	642	200	200	56644	-40957
1912	642	200	200	56644	-40957
1913	642	200	200	56644	-40939
1914	642	200	200	56668	-40939
1915	640	200	200	56668	-40939
1916	641	200	200	56668	-40921
1917	641	200	200	56693	-40921
1918	642	200	200	56693	-40921
1919	642	200	200	56693	-40903
1920	642	200	200	56717	-40903
1921	640	200	200	56717	-40903
1922	641	200	200	56717	-40885
1923	641	200	200	56742	-40885
1924	642	200	200	56742	-40885
1925	642	200	200	56742	-40866
1926	642	200	200	56764	-40866
1927	640	200	200	56764	-40866
1928	641	200	200	56764	-40848
1929	640	200	200	56786	-40848
1930	642	200	200	56786	-40848
1931	642	200	200	56786	-40831
1932	642	200	200	56809	-40831
1933	641	200	200	56809	-40831
1934	641	200	200	56809	-40813
1935	641	200	200	56831	-40813
1936	641	200	200	56831	-40813
1937	641	200	200	56831	-40797
1938	642	200	200	56831	-40797
1939	641	200	200	56856	-40797
1940	642	200	200	56856	-40782
1941	641	200	200	56856	-40782
1942	642	200	200	56879	-40782
1943	640	200	200	56879	-40767
1944	642	200	200	56879	-40767
1945	641	200	200	56903	-40767
1946	642	200	200	56903	-40753
1947	641	200	200	56903	-40753
1948	642	200	200	56929	-40753
1949	642	200	200	56929	-40739
1950	641	200	200	56929	-40739
1951	641	200	200	56953	-40739
1952	642	200	200	56953	-40727
1953	641	200	200	56953	-40727
1954	642	200	200	56977	-40727
1955	642	200	200	56977	-40715
1956	642	200	200	56977	-40715
1957	641	200	200	57001	-40715
1958	642	200	200	57001	-40703
1959	641	200	200	57001	-40703
1960	642	200	200	57023	-40703
1961	642	200	200	57023	-40689
1962	641	200	200	57023	-40689
1963	642	200	200	57046	-40689
1964	641	200	200	57046	-40675
1965	642	200	200	57046	-40675
1966	642	200	200	57070	-40675
1967	641	200	200	57070	-40661
1968	641	200	200	57070	-40661
1969	641	200	200	57090	-40661
1970	642	200	200	57090	-40648
1971	641	200	200	57090	-40648
1972	642	200	200	57112	-40648
1973	641	200	200	57112	-40633
1974	642	200	200	57112	-40633
1975	641	200	200	57133	-40633
1976	642	200	200	57133	-40618
1977	642	200	200	57133	-40618
1978	642	200	200	57154	-40618
1979	642	200	200	57154	-40604
1980	642	200	200	57154	-40604
1981	642	200	200	57177	-40604
1982	642	200	200	57177	-40589
1983	642	200	200	57177	-40589
1984	641	200	200	57202	-40589
1985	642	200	200	57202	-40574
1986	641	200	200	57202	-40574
1987	642	200	200	57226	-40574
1988	642	200	200	57226	-40558
1989	642	200	200	57226	-40558
1990	642	200	200	57251	-40558
1991	642	200	200	57251	-40542
1992	641	200	200	57251	-40542
1993	641	200	200	57274	-40542
1994	641	200	200	57274	-40527
1995	642	200	200	57274	-40527
1996	642	200	200	57298	-40527
1997	642	200	200	57298	-40513
1998	642	200	200	57298	-40513
1999	641	200	200	57323	-40513
2000	640	200	200	57323	-40498
2001	639	200	200	57323	-40498
2002	642	200	200	57347	-40498
2003	642	200	200	57347	-40485
2004	642	200	200	57347	-40485
2005	641	200	200	57372	-40485
2006	641	200	200	57372	-40485
2007	640	200	200	57372	-40473
2008	642	200	200	57396	-40473
2009	641	200	200	57396	-40473
2010	638	200	200	57396	-40460
2011	637	200	200	57419	-40460
2012	636	200	200	57419	-40460
2013	637	200	200	57419	-40447
2014	638	200	200	57442	-40447
2015	637	200	200	57442	-40447
2016	638	200	200	57442	-40434
2017	636	200	200	57462	-40434
2018	638	200	200	57462	-40434
2019	637	200	200	57462	-40422
2020	638	200	200	57481	-40422
2021	638	200	200	57481	-40422
2022	638	200	200	57481	-40410
2023	637	200	200	57501	-40410
2024	638	200	200	57501	-40410
2025	638	200	200	57501	-40399
2026	638	200	200	57519	-40399
2027	638	200	200	57519	-40399
2028	638	200	200	57519	-40389
2029	637	200	200	57539	-40389
2030	638	200	200	57539	-40389
2031	638	200	200	57539	-40379
2032	636	200	200	57560	-40379
2033	638	200	200	57560	-40379
2034	638	200	200	57560	-40369
2035	637	200	200	57583	-40369
2036	637	200	200	57583	-40369
2037	638	200	200	57583	-40358
2038	637	200	200	57606	-40358
2039	638	200	200	57606	-40358
2040	638	200	200	57606	-40345
2041	638	200	200	57630	-40345
2042	638	200	200	57630	-40345
2043	638	200	200	57630	-40334
2044	637	200	200	57652	-40334
2045	637	200	200	57652	-40334
2046	638	200	200	57652	-40320
2047	637	200	200	57671	-40320
2048	638	200	200	57671	-40320
2049	635	200	200	57671	-40306
2050	637	200	200	57691	-40306
2051	636	200	200	57691	-40306
2052	637	200	200	57691	-40291
2053	637	200	200	57711	-40291
2054	637	200	200	57711	-40291
2055	638	200	200	57711	-40277
2056	637	200	200	57711	-40277
2057	638	200	200	57730	-40277
2058	637	200	200	57730	-40262
2059	638	200	200	57730	-40262
2060	637	200	200	57751	-40262
2061	638	200	200	57751	-40248
2062	638	200	200	57751	-40248
2063	638	200	200	57770	-40248
2064	637	200	200	57770	-40235
2065	637	200	200	57770	-40235
2066	638	200	200	57787	-40235
2067	638	200	200	57787	-40221
2068	637	200	200	57787	-40221
2069	637	200	200	57805	-40221
2070	636	200	200	57805	-40207
2071	638	200	200	57805	-40207
2072	637	200	200	57823	-40207
2073	637	200	200	57823	-40193
2074	637	200	200	57823	-40193
2075	637	200	200	57842	-40193
2076	638	200	200	57842	-40178
2077	637	200	200	57842	-40178
2078	638	200	200	57861	-40178
2079	637	200	200	57861	-40163
2080	638	200	200	57861	-40163
2081	637	200	200	57883	-40163
2082	637	200	200	57883	-40149
2083	638	200	200	57883	-40149
2084	637	200	200	57904	-40149
2085	637	200	200	57904	-40134
2086	638	200	200	57904	-40134
2087	638	200	200	57923	-40134
2088	638	200	200	57923	-40122
2089	638	200	200	57923	-40122
2090	637	200	200	57943	-40122
2091	637	200	200	57943	-40110
2092	638	200	200	57943	-40110
2093	636	200	200	57963	-40110
2094	638	200	200	57963	-40098
2095	638	200	200	57963	-40098
2096	638	200	200	57982	-40098
2097	636	200	200	57982	-40087
2098	637	200	200	57982	-40087
2099	637	200	200	58004	-40087
2100	638	200	200	58004	-40078
2101	638	200	200	58004	-40078
2102	637	200	200	58026	-40078
2103	636	200	200	58026	-40069
2104	635	200	200	58026	-40069
2105	638	200	200	58046	-40069
2106	638	200	200	58046	-40060
2107	638	200	200	58046	-40060
2108	638	200	200	58066	-40060
2109	637	200	200	58066	-40051
2110	635	200	200	58066	-40051
2111	638	200	200	58086	-40051
2112	638	200	200	58086	-40041
2113	638	200	200	58086	-40041
2114	638	200	200	58103	-40041
2115	637	200	200	58103	-40031
2116	636	200	200	58103	-40031
2117	638	200	200	58119	-40031
2118	638	200	200	58119	-40021
2119	638	200	200	58119	-40021
2120	638	200	200	58135	-40021
2121	638	200	200	58135	-40010
2122	637	200	200	58135	-40010
2123	637	200	200	58151	-40010
2124	637	200	200	58151	-40010
2125	638	200	200	58151	-39998
2126	638	200	200	58168	-39998
2127	637	200	200	58168	-39998
2128	637	200	200	58168	-39986
2129	638	200	200	58186	-39986
2130	638	200	200	58186	-39986
2131	638	200	200	58186	-39974
2132	638	200	200	58206	-39974
2133	637	200	200	58206	-39974
2134	637	200	200	58206	-39960
2135	637	200	200	58226	-39960
2136	638	200	200	58226	-39960
2137	638	200	200	58226	-39949
2138	637	200	200	58247	-39949
2139	638	200	200	58247	-39949
2140	638	200	200	58247	-39936
2141	637	200	200	58270	-39936
2142	638	200	200	58270	-39936
2143	637	200	200	58270	-39922
2144	638	200	200	58292	-39922
2145	637	200	200	58292	-39922
2146	637	200	200	58292	-39907
2147	637	200	200	58313	-39907
2148	637	200	200	58313	-39907
2149	638	200	200	58313	-39894
2150	638	200	200	58335	-39894
2151	638	200	200	58335	-39894
2152	636	200	200	58335	-39878
2153	638	200	200	58354	-39878
2154	637	200	200	58354	-39878
2155	637	200	200	58354	-39865
2156	637	200	200	58375	-39865
2157	636	200	200	58375	-39865
2158	638	200	200	58375	-39851
2159	636	200	200	58397	-39851
2160	637	200	200	58397	-39851
2161	637	200	200	58397	-39839
2162	637	200	200	58419	-39839
2163	636	200	200	58419	-39839
2164	637	200	200	58419	-39826
2165	638	200	200	58439	-39826
2166	637	200	200	58439	-39826
2167	638	200	200	58439	-39815
2168	637	200	200	58439	-39815
2169	638	200	200	58457	-39815
2170	638	200	200	58457	-39802
2171	638	200	200	58457	-39802
2172	637	200	200	58475	-39802
2173	637	200	200	58475	-39790
2174	637	200	200	58475	-39790
2175	637	200	200	58492	-39790
2176	637	200	200	58492	-39779
2177	637	200	200	58492	-39779
2178	637	200	200	58511	-39779
2179	638	200	200	58511	-39768
2180	637	200	200	58511	-39768
2181	638	200	200	58532	-39768
2182	637	200	200	58532	-39756
2183	637	200	200	58532	-39756
2184	638	200	200	58552	-39756
2185	638	200	200	58552	-39745
2186	638	200	200	58552	-39745
2187	636	200	200	58573	-39745
2188	637	200	200	58573	-39735
2189	637	200	200	58573	-39735
2190	637	200	200	58595	-39735
2191	638	200	200	58595	-39727
2192	638	200	200	58595	-39727
2193	638	200	200	58616	-39727
2194	637	200	200	58616	-39719
2195	636	200	200	58616	-39719
2196	637	200	200	58637	-39719
2197	638	200	200	58637	-39713
2198	638	200	200	58637	-39713
2199	638	200	200	58658	-39713
2200	636	200	200	58658	-39707
2201	635	200	200	58658	-39707
2202	637	200	200	58678	-39707
2203	637	200	200	58678	-39701
2204	638	200	200	58678	-39701
2205	638	200	200	58698	-39701
2206	636	200	200	58698	-39695
2207	636	200	200	58698	-39695
2208	637	200	200	58719	-39695
2209	637	200	200	58719	-39688
2210	637	200	200	58719	-39688
2211	638	200	200	58739	-39688
2212	637	200	200	58739	-39681
2213	637	200	200	58739	-39681
2214	638	200	200	58758	-39681
2215	636	200	200	58758	-39673
2216	636	200	200	58758	-39673
2217	638	200	200	58778	-39673
2218	638	200	200	58778	-39664
2219	637	200	200	58778	-39664
2220	638	200	200	58795	-39664
2221	638	200	200	58795	-39655
2222	637	200	200	58795	-39655
2223	637	200	200	58810	-39655
2224	638	200	200	58810	-39645
2225	637	200	200	58810	-39645
2226	637	200	200	58826	-39645
2227	638	200	200	58826	-39635
2228	637	200	200	58826	-39635
2229	637	200	200	58843	-39635
2230	638	200	200	58843	-39624
2231	637	200	200	58843	-39624
2232	636	200	200	58862	-39624
2233	636	200	200	58862	-39614
2234	638	200	200	58862	-39614
2235	638	200	200	58880	-39614
2236	638	200	200	58880	-39604
2237	637	200	200	58880	-39604
2238	638	200	200	58901	-39604
2239	636	200	200	58901	-39593
2240	637	200	200	58901	-39593
2241	637	200	200	58921	-39593
2242	638	200	200	58921	-39593
2243	637	200	200	58921	-39582
2244	637	200	200	58941	-39582
2245	638	200	200	58941	-39582
2246	638	200	200	58941	-39571
2247	637	200	200	58962	-39571
2248	638	200	200	58962	-39571
2249	638	200	200	58962	-39562
2250	638	200	200	58984	-39562
2251	638	200	200	58984	-39562
2252	638	200	200	58984	-39551
2253	637	200	200	59004	-39551
2254	637	200	200	59004	-39551
2255	638	200	200	59004	-39541
2256	638	200	200	59023	-39541
2257	638	200	200	59023	-39541
2258	637	200	200	59023	-39531
2259	638	200	200	59043	-39531
2260	636	200	200	59043	-39531
2261	638	200	200	59043	-39521
2262	637	200	200	59061	-39521
2263	637	200	200	59061	-39521
2264	638	200	200	59061	-39510
2265	637	200	200	59080	-39510
2266	638	200	200	59080	-39510
2267	637	200	200	59080	-39499
2268	637	200	200	59099	-39499
2269	638	200	200	59099	-39499
2270	637	200	200	59099	-39489
2271	638	200	200	59118	-39489
2272	638	200	200	59118	-39489
2273	637	200	200	59118	-39477
2274	637	200	200	59135	-39477
2275	638	200	200	59135	-39477
2276	638	200	200	59135	-39465
2277	638	200	200	59151	-39465
2278	638	200	200	59151	-39465
2279	637	200	200	59151	-39455
2280	638	200	200	59167	-39455
2281	636	200	200	59167	-39455
2282	638	200	200	59167	-39446
2283	638	200	200	59183	-39446
2284	638	200	200	59183	-39446
2285	638	200	200	59183	-39438
2286	638	200	200	59200	-39438
2287	637	200	200	59200	-39438
2288	638	200	200	59200	-39431
2289	638	200	200	59218	-39431
2290	638	200	200	59218	-39431
2291	638	200	200	59218	-39424
2292	638	200	200	59218	-39424
2293	637	200	200	59239	-39424
2294	638	200	200	59239	-39417
2295	638	200	200	59239	-39417
2296	636	200	200	59259	-39417
2297	638	200	200	59259	-39410
2298	638	200	200	59259	-39410
2299	637	200	200	59280	-39410
2300	636	200	200	59280	-39404
2301	637	200	200	59280	-39404
2302	636	200	200	59301	-39404
2303	638	200	200	59301	-39399
2304	638	200	200	59301	-39399
2305	638	200	200	59321	-39399
2306	636	200	200	59321	-39393
2307	637	200	200	59321	-39393
2308	636	200	200	59342	-39393
2309	638	200	200	59342	-39389
2310	638	200	200	59342	-39389
2311	638	200	200	59364	-39389
2312	636	200	200	59364	-39386
2313	637	200	200	59364	-39386
2314	637	200	200	59385	-39386
2315	638	200	200	59385	-39383
2316	638	200	200	59385	-39383
2317	637	200	200	59406	-39383
2318	637	200	200	59406	-39381
2319	637	200	200	59406	-39381
2320	637	200	200	59427	-39381
2321	638	200	200	59427	-39378
2322	638	200	200	59427	-39378
2323	637	200	200	59446	-39378
2324	637	200	200	59446	-39375
2325	637	200	200	59446	-39375
2326	637	200	200	59464	-39375
2327	638	200	200	59464	-39372
2328	638	200	200	59464	-39372
2329	638	200	200	59482	-39372
2330	637	200	200	59482	-39368
2331	637	200	200	59482	-39368
2332	637	200	200	59499	-39368
2333	637	200	200	59499	-39365
2334	637	200	200	59499	-39365
2335	638	200	200	59513	-39365
2336	637	200	200	59513	-39361
2337	638	200	200	59513	-39361
2338	637	200	200	59528	-39361
2339	638	200	200	59528	-39355
2340	637	200	200	59528	-39355
2341	637	200	200	59544	-39355
2342	637	200	200	59544	-39347
2343	637	200	200	59544	-39347
2344	638	200	200	59559	-39347
2345	638	200	200	59559	-39339
2346	638	200	200	59559	-39339
2347	637	200	200	59574	-39339
2348	638	200	200	59574	-39331
2349	637	200	200	59574	-39331
2350	637	200	200	59590	-39331
2351	637	200	200	59590	-39323
2352	638	200	200	59590	-39323
2353	638	200	200	59608	-39323
2354	638	200	200	59608	-39315
2355	638	200	200	59608	-39315
2356	637	200	200	59626	-39315
2357	637	200	200	59626	-39306
2358	638	200	200	59626	-39306
2359	637	200	200	59644	-39306
2360	638	200	200	59644	-39306
2361	637	200	200	59644	-39297
2362	638	200	200	59665	-39297
2363	637	200	200	59665	-39297
2364	637	200	200	59665	-39287
2365	637	200	200	59682	-39287
2366	637	200	200	59682	-39287
2367	638	200	200	59682	-39278
2368	638	200	200	59700	-39278
2369	638	200	200	59700	-39278
2370	637	200	200	59700	-39268
2371	638	200	200	59716	-39268
2372	637	200	200	59716	-39268
2373	637	200	200	59716	-39258
2374	637	200	200	59733	-39258
2375	638	200	200	59733	-39258
2376	638	200	200	59733	-39247
2377	637	200	200	59751	-39247
2378	638	200	200	59751	-39247
2379	636	200	200	59751	-39236
2380	638	200	200	59767	-39236
2381	638	200	200	59767	-39236
2382	636	200	200	59767	-39225
2383	636	200	200	59785	-39225
2384	637	200	200	59785	-39225
2385	637	200	200	59785	-39213
2386	638	200	200	59801	-39213
2387	638	200	200	59801	-39213
2388	638	200	200	59801	-39202
2389	637	200	200	59816	-39202
2390	636	200	200	59816	-39202
2391	637	200	200	59816	-39191
2392	637	200	200	59829	-39191
2393	638	200	200	59829	-39191
2394	638	200	200	59829	-39180
2395	638	200	200	59842	-39180
2396	637	200	200	59842	-39180
2397	638	200	200	59842	-39169
2398	638	200	200	59855	-39169
2399	637	200	200	59855	-39169
2400	638	200	200	59855	-39158
2401	638	200	200	59870	-39158
2402	638	200	200	59870	-39158
2403	638	200	200	59870	-39149
2404	637	200	200	59886	-39149
2405	638	200	200	59886	-39149
2406	637	200	200	59886	-39139
2407	638	200	200	59901	-39139
2408	638	200	200	59901	-39139
2409	638	200	200	59901	-39128
2410	636	200	200	59901	-39128
2411	635	200	200	59918	-39128
2412	637	200	200	59918	-39118
2413	638	200	200	59918	-39118
2414	638	200	200	59936	-39118
2415	637	200	200	59936	-39107
2416	637	200	200	59936	-39107
2417	636	200	200	59953	-39107
2418	638	200	200	59953	-39096
2419	637	200	200	59953	-39096
2420	637	200	200	59969	-39096
2421	637	200	200	59969	-39086
2422	638	200	200	59969	-39086
2423	638	200	200	59985	-39086
2424	636	200	200	59985	-39077
2425	638	200	200	59985	-39077
2426	637	200	200	60003	-39077
2427	638	200	200	60003	-39069
2428	638	200	200	60003	-39069
2429	637	200	200	60019	-39069
2430	636	200	200	60019	-39062
2431	637	200	200	60019	-39062
2432	638	200	200	60036	-39062
2433	637	200	200	60036	-39055
2434	638	200	200	60036	-39055
2435	637	200	200	60055	-39055
2436	638	200	200	60055	-39049
2437	637	200	200	60055	-39049
2438	638	200	200	60074	-39049
2439	638	200	200	60074	-39044
2440	637	200	200	60074	-39044
2441	638	200	200	60089	-39044
2442	637	200	200	60089	-39041
2443	637	200	200	60089	-39041
2444	638	200	200	60105	-39041
2445	638	200	200	60105	-39038
2446	638	200	200	60105	-39038
2447	637	200	200	60121	-39038
2448	637	200	200	60121	-39036
2449	637	200	200	60121	-39036
2450	638	200	200	60136	-39036
2451	638	200	200	60136	-39033
2452	638	200	200	60136	-39033
2453	638	200	200	60149	-39033
2454	637	200	200	60149	-39030
2455	638	200	200	60149	-39030
2456	638	200	200	60161	-39030
2457	637	200	200	60161	-39027
2458	638	200	200	60161	-39027
2459	637	200	200	60175	-39027
2460	638	200	200	60175	-39023
2461	637	200	200	60175	-39023
2462	636	200	200	60188	-39023
2463	637	200	200	60188	-39019
2464	637	200	200	60188	-39019
2465	638	200	200	60200	-39019
2466	637	200	200	60200	-39014
2467	638	200	200	60200	-39014
2468	637	200	200	60214	-39014
2469	638	200	200	60214	-39008
2470	638	200	200	60214	-39008
2471	637	200	200	60229	-39008
2472	638	200	200	60229	-39002
2473	638	200	200	60229	-39002
2474	637	200	200	60246	-39002
2475	637	200	200	60246	-38996
2476	637	200	200	60246	-38996
2477	638	200	200	60262	-38996
2478	637	200	200	60262	-38996
2479	638	200	200	60262	-38990
2480	638	200	200	60279	-38990
2481	636	200	200	60279	-38990
2482	637	200	200	60279	-38983
2483	638	200	200	60299	-38983
2484	638	200	200	60299	-38983
2485	638	200	200	60299	-38976
2486	638	200	200	60319	-38976
2487	638	200	200	60319	-38976
2488	638	200	200	60319	-38968
2489	637	200	200	60339	-38968
2490	637	200	200	60339	-38968
2491	637	200	200	60339	-38959
2492	638	200	200	60358	-38959
2493	638	200	200	60358	-38959
2494	638	200	200	60358	-38949
2495	637	200	200	60378	-38949
2496	638	200	200	60378	-38949
2497	636	200	200	60378	-38939
2498	636	200	200	60396	-38939
2499	637	200	200	60396	-38939
2500	638	200	200	60396	-38929
2501	637	200	200	60414	-38929
2502	636	200	200	60414	-38929
2503	638	200	200	60414	-38919
2504	637	200	200	60434	-38919
2505	637	200	200	60434	-38919
2506	637	200	200	60434	-38910
2507	638	200	200	60454	-38910
2508	638	200	200	60454	-38910
2509	638	200	200	60454	-38900
2510	638	200	200	60473	-38900
2511	638	200	200	60473	-38900
2512	636	200	200	60473	-38890
2513	638	200	200	60490	-38890
2514	638	200	200	60490	-38890
2515	638	200	200	60490	-38880
2516	637	200	200	60505	-38880
2517	636	200	200	60505	-38880
2518	638	200	200	60505	-38870
2519	637	200	200	60521	-38870
2520	638	200	200	60521	-38870
2521	638	200	200	60521	-38861
2522	637	200	200	60536	-38861
2523	638	200	200	60536	-38861
2524	637	200	200	60536	-38852
2525	636	200	200	60552	-38852
2526	637	200	200	60552	-38852
2527	638	200	200	60552	-38842
2528	638	200	200	60552	-38842
2529	637	200	200	60570	-38842
2530	637	200	200	60570	-38831
2531	637	200	200	60570	-38831
2532	637	200	200	60588	-38831
2533	638	200	200	60588	-38820
2534	638	200	200	60588	-38820
2535	638	200	200	60606	-38820
2536	638	200	200	60606	-38810
2537	638	200	200	60606	-38810
2538	638	200	200	60625	-38810
2539	637	200	200	60625	-38801
2540	637	200	200	60625	-38801
2541	638	200	200	60645	-38801
2542	637	200	200	60645	-38792
2543	637	200	200	60645	-38792
2544	636	200	200	60663	-38792
2545	637	200	200	60663	-38782
2546	637	200	200	60663	-38782
2547	636	200	200	60681	-38782
2548	638	200	200	60681	-38772
2549	637	200	200	60681	-38772
2550	638	200	200	60700	-38772
2551	637	200	200	60700	-38762
2552	638	200	200	60700	-38762
2553	637	200	200	60717	-38762
2554	637	200	200	60717	-38753
2555	637	200	200	60717	-38753
2556	637	200	200	60733	-38753
2557	637	200	200	60733	-38744
2558	637	200	200	60733	-38744
2559	637	200	200	60748	-38744
2560	638	200	200	60748	-38736
2561	637	200	200	60748	-38736
2562	637	200	200	60766	-38736
2563	637	200	200	60766	-38728
2564	638	200	200	60766	-38728
2565	638	200	200	60782	-38728
2566	637	200	200	60782	-38721
2567	638	200	200	60782	-38721
2568	637	200	200	60798	-38721
2569	638	200	200	60798	-38713
2570	637	200	200	60798	-38713
2571	638	200	200	60814	-38713
2572	637	200	200	60814	-38707
2573	636	200	200	60814	-38707
2574	637	200	200	60830	-38707
2575	637	200	200	60830	-38701
2576	638	200	200	60830	-38701
2577	637	200	200	60843	-38701
2578	637	200	200	60843	-38695
2579	638	200	200	60843	-38695
2580	638	200	200	60854	-38695
2581	637	200	200	60854	-38691
2582	637	200	200	60854	-38691
2583	637	200	200	60865	-38691
2584	636	200	200	60865	-38687
2585	638	200	200	60865	-38687
2586	638	200	200	60876	-38687
2587	638	200	200	60876	-38683
2588	636	200	200	60876	-38683
2589	637	200	200	60887	-38683
2590	638	200	200	60887	-38683
2591	638	200	200	60887	-38680
2592	638	200	200	60900	-38680
2593	638	200	200	60900	-38680
2594	637	200	200	60900	-38677
2595	636	200	200	60914	-38677
2596	638	200	200	60914	-38677
2597	637	200	200	60914	-38674
2598	637	200	200	60927	-38674
2599	638	200	200	60927	-38674
2600	638	200	200	60927	-38670
2601	638	200	200	60942	-38670
2602	637	200	200	60942	-38670
2603	638	200	200	60942	-38665
2604	637	200	200	60958	-38665
2605	637	200	200	60958	-38665
2606	638	200	200	60958	-38660
2607	637	200	200	60974	-38660
2608	637	200	200	60974	-38660
2609	638	200	200	60974	-38655
2610	638	200	200	60991	-38655
2611	638	200	200	60991	-38655
2612	637	200	200	60991	-38649
2613	638	200	200	61009	-38649
2614	638	200	200	61009	-38649
2615	637	200	200	61009	-38642
2616	636	200	200	61026	-38642
2617	637	200	200	61026	-38642
2618	637	200	200	61026	-38635
2619	638	200	200	61043	-38635
2620	638	200	200	61043	-38635
2621	638	200	200	61043	-38628
2622	637	200	200	61059	-38628
2623	637	200	200	61059	-38628
2624	637	200	200	61059	-38621
2625	637	200	200	61076	-38621
2626	637	200	200	61076	-38621
2627	638	200	200	61076	-38613
2628	637	200	200	61092	-38613
2629	637	200	200	61092	-38613
2630	637	200	200	61092	-38604
2631	638	200	200	61108	-38604
2632	638	200	200	61108	-38604
2633	638	200	200	61108	-38595
2634	637	200	200	61124	-38595
2635	637	200	200	61124	-38595
2636	637	200	200	61124	-38586
2637	637	200	200	61141	-38586
2638	638	200	200	61141	-38586
2639	637	200	200	61141	-38577
2640	638	200	200	61159	-38577
2641	637	200	200	61159	-38577
2642	637	200	200	61159	-38569
2643	637	200	200	61175	-38569
2644	637	200	200	61175	-38569
2645	638	200	200	61175	-38561
2646	638	200	200	61175	-38561
2647	638	200	200	61188	-38561
2648	637	200	200	61188	-38553
2649	637	200	200	61188	-38553
2650	638	200	200	61201	-38553
2651	637	200	200	61201	-38544
2652	638	200	200	61201	-38544
2653	637	200	200	61214	-38544
2654	637	200	200	61214	-38536
2655	637	200	200	61214	-38536
2656	637	200	200	61228	-38536
2657	637	200	200	61228	-38527
2658	638	200	200	61228	-38527
2659	637	200	200	61241	-38527
2660	637	200	200	61241	-38518
2661	637	200	200	61241	-38518
2662	637	200	200	61256	-38518
2663	637	200	200	61256	-38508
2664	637	200	200	61256	-38508
2665	637	200	200	61273	-38508
2666	638	200	200	61273	-38499
2667	637	200	200	61273	-38499
2668	637	200	200	61292	-38499
2669	637	200	200	61292	-38490
2670	636	200	200	61292	-38490
2671	637	200	200	61309	-38490
2672	637	200	200	61309	-38482
2673	638	200	200	61309	-38482
2674	638	200	200	61330	-38482
2675	636	200	200	61330	-38473
2676	638	200	200	61330	-38473
2677	638	200	200	61349	-38473
2678	638	200	200	61349	-38465
2679	638	200	200	61349	-38465
2680	638	200	200	61365	-38465
2681	636	200	200	61365	-38456
2682	637	200	200	61365	-38456
2683	638	200	200	61381	-38456
2684	637	200	200	61381	-38449
2685	638	200	200	61381	-38449
2686	638	200	200	61398	-38449
2687	638	200	200	61398	-38442
2688	637	200	200	61398	-38442
2689	637	200	200	61416	-38442
2690	636	200	200	61416	-38436
2691	638	200	200	61416	-38436
2692	638	200	200	61433	-38436
2693	637	200	200	61433	-38429
2694	636	200	200	61433	-38429
2695	637	200	200	61451	-38429
2696	636	200	200	61451	-38423
2697	638	200	200	61451	-38423
2698	638	200	200	61469	-38423
2699	637	200	200	61469	-38418
2700	636	200	200	61469	-38418
2701	637	200	200	61486	-38418
2702	637	200	200	61486	-38413
2703	637	200	200	61486	-38413
2704	638	200	200	61502	-38413
2705	638	200	200	61502	-38409
2706	635	200	200	61502	-38409
2707	636	200	200	61519	-38409
2708	636	200	200	61519	-38404
2709	638	200	200	61519	-38404
2710	638	200	200	61534	-38404
2711	638	200	200	61534	-38400
2712	636	200	200	61534	-38400
2713	636	200	200	61546	-38400
2714	636	200	200	61546	-38400
2715	637	200	200	61546	-38396
2716	637	200	200	61557	-38396
2717	638	200	200	61557	-38396
2718	638	200	200	61557	-38394
2719	637	200	200	61568	-38394
2720	637	200	200	61568	-38394
2721	637	200	200	61568	-38391
2722	637	200	200	61580	-38391
2723	637	200	200	61580	-38391
2724	638	200	200	61580	-38389
2725	637	200	200	61593	-38389
2726	637	200	200	61593	-38389
2727	637	200	200	61593	-38387
2728	638	200	200	61605	-38387
2729	638	200	200	61605	-38387
2730	637	200	200	61605	-38385
2731	638	200	200	61617	-38385
2732	636	200	200	61617	-38385
2733	638	200	200	61617	-38382
2734	636	200	200	61630	-38382
2735	636	200	200	61630	-38382
2736	637	200	200	61630	-38380
2737	637	200	200	61642	-38380
2738	637	200	200	61642	-38380
2739	637	200	200	61642	-38378
2740	638	200	200	61657	-38378
2741	637	200	200	61657	-38378
2742	637	200	200	61657	-38376
2743	638	200	200	61672	-38376
2744	637	200	200	61672	-38376
2745	638	200	200	61672	-38374
2746	636	200	200	61687	-38374
2747	637	200	200	61687	-38374
2748	637	200	200	61687	-38372
2749	636	200	200	61704	-38372
2750	638	200	200	61704	-38372
2751	637	200	200	61704	-38370
2752	638	200	200	61719	-38370
2753	637	200	200	61719	-38370
2754	637	200	200	61719	-38368
2755	637	200	200	61735	-38368
2756	638	200	200	61735	-38368
2757	638	200	200	61735	-38367
2758	637	200	200	61750	-38367
2759	637	200	200	61750	-38367
2760	637	200	200	61750	-38365
2761	637	200	200	61763	-38365
2762	638	200	200	61763	-38365
2763	637	200	200	61763	-38364
2764	638	200	200	61763	-38364
2765	637	200	200	61777	-38364
2766	637	200	200	61777	-38363
2767	637	200	200	61777	-38363
2768	637	200	200	61792	-38363
2769	637	200	200	61792	-38362
2770	638	200	200	61792	-38362
2771	638	200	200	61806	-38362
2772	637	200	200	61806	-38361
2773	637	200	200	61806	-38361
2774	638	200	200	61819	-38361
2775	637	200	200	61819	-38359
2776	638	200	200	61819	-38359
2777	637	200	200	61832	-38359
2778	638	200	200	61832	-38358
2779	637	200	200	61832	-38358
2780	636	200	200	61845	-38358
2781	638	200	200	61845	-38357
2782	638	200	200	61845	-38357
2783	637	200	200	61858	-38357
2784	637	200	200	61858	-38356
2785	637	200	200	61858	-38356
2786	638	200	200	61869	-38356
2787	638	200	200	61869	-38355
2788	638	200	200	61869	-38355
2789	638	200	200	61878	-38355
2790	636	200	200	61878	-38354
2791	638	200	200	61878	-38354
2792	638	200	200	61886	-38354
2793	638	200	200	61886	-38353
2794	638	200	200	61886	-38353
2795	638	200	200	61894	-38353
2796	637	200	200	61894	-38352
2797	637	200	200	61894	-38352
2798	637	200	200	61903	-38352
2799	637	200	200	61903	-38351
2800	638	200	200	61903	-38351
2801	638	200	200	61914	-38351
2802	638	200	200	61914	-38350
2803	636	200	200	61914	-38350
2804	636	200	200	61925	-38350
2805	636	200	200	61925	-38349
2806	637	200	200	61925	-38349
2807	638	200	200	61936	-38349
2808	638	200	200	61936	-38348
2809	637	200	200	61936	-38348
2810	638	200	200	61948	-38348
2811	638	200	200	61948	-38347
2812	637	200	200	61948	-38347
2813	636	200	200	61962	-38347
2814	636	200	200	61962	-38346
2815	637	200	200	61962	-38346
2816	637	200	200	61976	-38346
2817	637	200	200	61976	-38344
2818	638	200	200	61976	-38344
2819	638	200	200	61991	-38344
2820	638	200	200	61991	-38342
2821	638	200	200	61991	-38342
2822	638	200	200	62005	-38342
2823	638	200	200	62005	-38339
2824	636	200	200	62005	-38339
2825	637	200	200	62017	-38339
2826	638	200	200	62017	-38335
2827	637	200	200	62017	-38335
2828	636	200	200	62029	-38335
2829	637	200	200	62029	-38332
2830	638	200	200	62029	-38332
2831	638	200	200	62043	-38332
2832	638	200	200	62043	-38332
2833	637	200	200	62043	-38328
2834	638	200	200	62055	-38328
2835	638	200	200	62055	-38328
2836	637	200	200	62055	-38324
2837	638	200	200	62065	-38324
2838	637	200	200	62065	-38324
2839	637	200	200	62065	-38319
2840	637	200	200	62077	-38319
2841	637	200	200	62077	-38319
2842	638	200	200	62077	-38314
2843	638	200	200	62092	-38314
2844	637	200	200	62092	-38314
2845	637	200	200	62092	-38308
2846	637	200	200	62105	-38308
2847	638	200	200	62105	-38308
2848	637	200	200	62105	-38302
2849	638	200	200	62120	-38302
2850	637	200	200	62120	-38302
2851	638	200	200	62120	-38296
2852	638	200	200	62134	-38296
2853	637	200	200	62134	-38296
2854	637	200	200	62134	-38290
2855	638	200	200	62148	-38290
2856	638	200	200	62148	-38290
2857	637	200	200	62148	-38285
2858	638	200	200	62162	-38285
2859	638	200	200	62162	-38285
2860	637	200	200	62162	-38278
2861	638	200	200	62176	-38278
2862	637	200	200	62176	-38278
2863	638	200	200	62176	-38271
2864	637	200	200	62187	-38271
2865	637	200	200	62187	-38271
2866	637	200	200	62187	-38262
2867	638	200	200	62197	-38262
2868	638	200	200	62197	-38262
2869	637	200	200	62197	-38252
2870	638	200	200	62207	-38252
2871	638	200	200	62207	-38252
2872	637	200	200	62207	-38242
2873	638	200	200	62218	-38242
2874	637	200	200	62218	-38242
2875	638	200	200	62218	-38234
2876	637	200	200	62228	-38234
2877	638	200	200	62228	-38234
2878	637	200	200	62228	-38224
2879	638	200	200	62236	-38224
2880	638	200	200	62236	-38224
2881	638	200	200	62236	-38216
2882	638	200	200	62236	-38216
2883	638	200	200	62245	-38216
2884	636	200	200	62245	-38208
2885	637	200	200	62245	-38208
2886	637	200	200	62257	-38208
2887	638	200	200	62257	-38199
2888	637	200	200	62257	-38199
2889	635	200	200	62271	-38199
2890	636	200	200	62271	-38191
2891	637	200	200	62271	-38191
2892	638	200	200	62285	-38191
2893	638	200	200	62285	-38182
2894	638	200	200	62285	-38182
2895	637	200	200	62302	-38182
2896	636	200	200	62302	-38173
2897	637	200	200	62302	-38173
2898	638	200	200	62317	-38173
2899	638	200	200	62317	-38165
2900	638	200	200	62317	-38165
2901	637	200	200	62334	-38165
2902	636	200	200	62334	-38156
2903	638	200	200	62334	-38156
2904	638	200	200	62352	-38156
2905	638	200	200	62352	-38147
2906	638	200	200	62352	-38147
2907	638	200	200	62371	-38147
2908	637	200	200	62371	-38138
2909	638	200	200	62371	-38138
2910	637	200	200	62390	-38138
2911	637	200	200	62390	-38127
2912	638	200	200	62390	-38127
2913	638	200	200	62408	-38127
2914	637	200	200	62408	-38117
2915	637	200	200	62408	-38117
2916	637	200	200	62425	-38117
2917	637	200	200	62425	-38107
2918	638	200	200	62425	-38107
2919	638	200	200	62442	-38107
2920	638	200	200	62442	-38099
2921	636	200	200	62442	-38099
2922	637	200	200	62458	-38099
2923	637	200	200	62458	-38090
2924	638	200	200	62458	-38090
2925	637	200	200	62475	-38090
2926	637	200	200	62475	-38081
2927	638	200	200	62475	-38081
2928	638	200	200	62493	-38081
2929	638	200	200	62493	-38073
2930	637	200	200	62493	-38073
2931	637	200	200	62510	-38073
2932	638	200	200	62510	-38065
2933	638	200	200	62510	-38065
2934	637	200	200	62525	-38065
2935	638	200	200	62525	-38058
2936	636	200	200	62525	-38058
2937	637	200	200	62539	-38058
2938	637	200	200	62539	-38051
2939	636	200	200	62539	-38051
2940	637	200	200	62551	-38051
2941	637	200	200	62551	-38044
2942	638	200	200	62551	-38044
2943	637	200	200	62562	-38044
2944	638	200	200	62562	-38038
2945	637	200	200	62562	-38038
2946	637	200	200	62573	-38038
2947	636	200	200	62573	-38033
2948	636	200	200	62573	-38033
2949	637	200	200	62584	-38033
2950	638	200	200	62584	-38033
2951	638	200	200	62584	-38029
2952	637	200	200	62596	-38029
2953	638	200	200	62596	-38029
2954	638	200	200	62596	-38025
2955	637	200	200	62611	-38025
2956	638	200	200	62611	-38025
2957	637	200	200	62611	-38020
2958	638	200	200	62627	-38020
2959	638	200	200	62627	-38020
2960	638	200	200	62627	-38015
2961	637	200	200	62642	-38015
2962	637	200	200	62642	-38015
2963	638	200	200	62642	-38012
2964	637	200	200	62658	-38012
2965	638	200	200	62658	-38012
2966	636	200	200	62658	-38008
2967	637	200	200	62675	-38008
2968	637	200	200	62675	-38008
2969	637	200	200	62675	-38003
2970	638	200	200	62693	-38003
2971	637	200	200	62693	-38003
2972	638	200	200	62693	-37998
2973	637	200	200	62710	-37998
2974	638	200	200	62710	-37998
2975	637	200	200	62710	-37993
2976	637	200	200	62725	-37993
2977	638	200	200	62725	-37993
2978	638	200	200	62725	-37987
2979	638	200	200	62742	-37987
2980	638	200	200	62742	-37987
2981	638	200	200	62742	-37980
2982	636	200	200	62759	-37980
2983	638	200	200	62759	-37980
2984	638	200	200	62759	-37972
2985	638	200	200	62774	-37972
2986	638	200	200	62774	-37972
2987	637	200	200	62774	-37965
2988	636	200	200	62789	-37965
2989	637	200	200	62789	-37965
2990	638	200	200	62789	-37957
2991	636	200	200	62806	-37957
2992	638	200	200	62806	-37957
2993	638	200	200	62806	-37949
2994	638	200	200	62822	-37949
2995	637	200	200	62822	-37949
2996	638	200	200	62822	-37941
2997	637	200	200	62838	-37941
2998	638	200	200	62838	-37941
2999	638	200	200	62838	-37934
3000	638	200	200	62838	-37934
3001	636	200	200	62854	-37934
3002	637	200	200	62854	-37927
3003	636	200	200	62854	-37927
3004	638	200	200	62870	-37927
3005	638	200	200	62870	-37920
3006	637	200	200	62870	-37920
3007	636	200	200	62885	-37920
3008	637	200	200	62885	-37911
3009	637	200	200	62885	-37911
3010	638	200	200	62898	-37911
3011	638	200	200	62898	-37903
3012	638	200	200	62898	-37903
3013	637	200	200	62909	-37903
3014	636	200	200	62909	-37893
3015	638	200	200	62909	-37893
3016	637	200	200	62921	-37893
3017	638	200	200	62921	-37883
3018	638	200	200	62921	-37883
3019	636	200	200	62931	-37883
3020	636	200	200	62931	-37871
3021	638	200	200	62931	-37871
3022	638	200	200	62943	-37871
3023	638	200	200	62943	-37860
3024	637	200	200	62943	-37860
3025	637	200	200	62956	-37860
3026	638	200	200	62956	-37850
3027	637	200	200	62956	-37850
3028	638	200	200	62969	-37850
3029	637	200	200	62969	-37837
3030	637	200	200	62969	-37837
3031	637	200	200	62982	-37837
3032	636	200	200	62982	-37825
3033	637	200	200	62982	-37825
3034	638	200	200	62997	-37825
3035	637	200	200	62997	-37814
3036	637	200	200	62997	-37814
3037	637	200	200	63012	-37814
3038	638	200	200	63012	-37801
3039	637	200	200	63012	-37801
3040	638	200	200	63027	-37801
3041	637	200	200	63027	-37790
3042	638	200	200	63027	-37790
3043	638	200	200	63043	-37790
3044	638	200	200	63043	-37780
3045	638	200	200	63043	-37780
3046	637	200	200	63060	-37780
3047	638	200	200	63060	-37772
3048	637	200	200	63060	-37772
3049	637	200	200	63077	-37772
3050	638	200	200	63077	-37763
3051	636	200	200	63077	-37763
3052	637	200	200	63093	-37763
3053	637	200	200	63093	-37755
3054	636	200	200	63093	-37755
3055	637	200	200	63108	-37755
3056	637	200	200	63108	-37748
3057	638	200	200	63108	-37748
3058	637	200	200	63124	-37748
3059	638	200	200	63124	-37740
3060	635	200	200	63124	-37740
3061	637	200	200	63139	-37740
3062	636	200	200	63139	-37731
3063	637	200	200	63139	-37731
3064	638	200	200	63153	-37731
3065	637	200	200	63153	-37724
3066	638	200	200	63153	-37724
3067	638	200	200	63167	-37724
3068	638	200	200	63167	-37724
3069	637	200	200	63167	-37717
3070	637	200	200	63182	-37717
3071	637	200	200	63182	-37717
3072	637	200	200	63182	-37710
3073	637	200	200	63197	-37710
3074	638	200	200	63197	-37710
3075	637	200	200	63197	-37703
3076	636	200	200	63211	-37703
3077	638	200	200	63211	-37703
3078	638	200	200	63211	-37698
3079	638	200	200	63224	-37698
3080	637	200	200	63224	-37698
3081	638	200	200	63224	-37693
3082	637	200	200	63235	-37693
3083	638	200	200	63235	-37693
3084	638	200	200	63235	-37690
3085	637	200	200	63247	-37690
3086	638	200	200	63247	-37690
3087	638	200	200	63247	-37687
3088	638	200	200	63260	-37687
3089	638	200	200	63260	-37687
3090	638	200	200	63260	-37683
3091	637	200	200	63272	-37683
3092	638	200	200	63272	-37683
3093	637	200	200	63272	-37680
3094	638	200	200	63284	-37680
3095	638	200	200	63284	-37680
3096	638	200	200	63284	-37676
3097	638	200	200	63295	-37676
3098	637	200	200	63295	-37676
3099	637	200	200	63295	-37672
3100	636	200	200	63308	-37672
3101	638	200	200	63308	-37672
3102	638	200	200	63308	-37669
3103	638	200	200	63322	-37669
3104	636	200	200	63322	-37669
3105	636	200	200	63322	-37666
3106	638	200	200	63337	-37666
3107	637	200	200	63337	-37666
3108	638	200	200	63337	-37664
3109	637	200	200	63352	-37664
3110	636	200	200	63352	-37664
3111	635	200	200	63352	-37662
3112	638	200	200	63369	-37662
3113	638	200	200	63369	-37662
3114	638	200	200	63369	-37660
3115	638	200	200	63369	-37660
3116	637	200	200	63385	-37660
3117	637	200	200	63385	-37658
3118	638	200	200	63385	-37658
3119	637	200	200	63401	-37658
3120	637	200	200	63401	-37656
3121	638	200	200	63401	-37656
3122	637	200	200	63415	-37656
3123	637	200	200	63415	-37654
3124	638	200	200	63415	-37654
3125	636	200	200	63431	-37654
3126	637	200	200	63431	-37651
3127	637	200	200	63431	-37651
3128	636	200	200	63447	-37651
3129	638	200	200	63447	-37648
3130	638	200	200	63447	-37648
3131	638	200	200	63462	-37648
3132	637	200	200	63462	-37645
3133	637	200	200	63462	-37645
3134	637	200	200	63477	-37645
3135	637	200	200	63477	-37641
3136	637	200	200	63477	-37641
3137	637	200	200	63492	-37641
3138	637	200	200	63492	-37637
3139	637	200	200	63492	-37637
3140	637	200	200	63507	-37637
3141	638	200	200	63507	-37633
3142	638	200	200	63507	-37633
3143	637	200	200	63522	-37633
3144	638	200	200	63522	-37628
3145	637	200	200	63522	-37628
3146	638	200	200	63536	-37628
3147	638	200	200	63536	-37623
3148	637	200	200	63536	-37623
3149	637	200	200	63549	-37623
3150	638	200	200	63549	-37617
3151	638	200	200	63549	-37617
3152	637	200	200	63562	-37617
3153	638	200	200	63562	-37612
3154	637	200	200	63562	-37612
3155	638	200	200	63575	-37612
3156	637	200	200	63575	-37606
3157	636	200	200	63575	-37606
3158	637	200	200	63585	-37606
3159	637	200	200	63585	-37599
3160	638	200	200	63585	-37599
3161	638	200	200	63594	-37599
3162	638	200	200	63594	-37593
3163	637	200	200	63594	-37593
3164	638	200	200	63601	-37593
3165	636	200	200	63601	-37587
3166	637	200	200	63601	-37587
3167	637	200	200	63609	-37587
3168	637	200	200	63609	-37581
3169	638	200	200	63609	-37581
3170	637	200	200	63618	-37581
3171	638	200	200	63618	-37575
3172	637	200	200	63618	-37575
3173	636	200	200	63626	-37575
3174	637	200	200	63626	-37569
3175	638	200	200	63626	-37569
3176	638	200	200	63636	-37569
3177	637	200	200	63636	-37562
3178	637	200	200	63636	-37562
3179	638	200	200	63646	-37562
3180	637	200	200	63646	-37555
3181	638	200	200	63646	-37555
3182	638	200	200	63657	-37555
3183	637	200	200	63657	-37547
3184	637	200	200	63657	-37547
3185	638	200	200	63668	-37547
3186	637	200	200	63668	-37547
3187	636	200	200	63668	-37539
3188	638	200	200	63680	-37539
3189	637	200	200	63680	-37539
3190	637	200	200	63680	-37531
3191	636	200	200	63691	-37531
3192	638	200	200	63691	-37531
3193	638	200	200	63691	-37524
3194	638	200	200	63705	-37524
3195	638	200	200	63705	-37524
3196	638	200	200	63705	-37518
3197	636	200	200	63720	-37518
3198	638	200	200	63720	-37518
3199	638	200	200	63720	-37511
3200	638	200	200	63734	-37511
3201	638	200	200	63734	-37511
3202	638	200	200	63734	-37503
3203	636	200	200	63749	-37503
3204	637	200	200	63749	-37503
3205	637	200	200	63749	-37495
3206	637	200	200	63765	-37495
3207	638	200	200	63765	-37495
3208	638	200	200	63765	-37488
3209	637	200	200	63780	-37488
3210	637	200	200	63780	-37488
3211	638	200	200	63780	-37480
3212	637	200	200	63794	-37480
3213	638	200	200	63794	-37480
3214	638	200	200	63794	-37473
3215	638	200	200	63806	-37473
3216	636	200	200	63806	-37473
3217	637	200	200	63806	-37465
3218	637	200	200	63818	-37465
3219	638	200	200	63818	-37465
3220	638	200	200	63818	-37457
3221	637	200	200	63831	-37457
3222	638	200	200	63831	-37457
3223	637	200	200	63831	-37448
3224	637	200	200	63844	-37448
3225	638	200	200	63844	-37448
3226	637	200	200	63844	-37441
3227	637	200	200	63856	-37441
3228	638	200	200	63856	-37441
3229	637	200	200	63856	-37434
3230	637	200	200	63867	-37434
3231	638	200	200	63867	-37434
3232	637	200	200	63867	-37426
3233	637	200	200	63880	-37426
3234	638	200	200	63880	-37426
3235	638	200	200	63880	-37418
3236	638	200	200	63893	-37418
3237	638	200	200	63893	-37418
3238	637	200	200	63893	-37412
3239	637	200	200	63893	-37412
3240	636	200	200	63905	-37412
3241	636	200	200	63905	-37407
3242	636	200	200	63905	-37407
3243	637	200	200	63916	-37407
3244	637	200	200	63916	-37403
3245	638	200	200	63916	-37403
3246	637	200	200	63924	-37403
3247	638	200	200	63924	-37398
3248	637	200	200	63924	-37398
3249	637	200	200	63931	-37398
3250	637	200	200	63931	-37393
3251	637	200	200	63931	-37393
3252	637	200	200	63938	-37393
3253	638	200	200	63938	-37388
3254	638	200	200	63938	-37388
3255	637	200	200	63945	-37388
3256	637	200	200	63945	-37383
3257	637	200	200	63945	-37383
3258	637	200	200	63953	-37383
3259	638	200	200	63953	-37377
3260	636	200	200	63953	-37377
3261	638	200	200	63962	-37377
3262	638	200	200	63962	-37372
3263	637	200	200	63962	-37372
3264	637	200	200	63971	-37372
3265	638	200	200	63971	-37367
3266	638	200	200	63971	-37367
3267	637	200	200	63979	-37367
3268	638	200	200	63979	-37363
3269	637	200	200	63979	-37363
3270	638	200	200	63988	-37363
3271	636	200	200	63988	-37358
3272	638	200	200	63988	-37358
3273	638	200	200	63997	-37358
3274	638	200	200	63997	-37354
3275	638	200	200	63997	-37354
3276	636	200	200	64008	-37354
3277	638	200	200	64008	-37350
3278	638	200	200	64008	-37350
3279	637	200	200	64018	-37350
3280	638	200	200	64018	-37346
3281	638	200	200	64018	-37346
3282	636	200	200	64029	-37346
3283	637	200	200	64029	-37343
3284	638	200	200	64029	-37343
3285	638	200	200	64040	-37343
3286	638	200	200	64040	-37340
3287	638	200	200	64040	-37340
3288	637	200	200	64051	-37340
3289	638	200	200	64051	-37338
3290	637	200	200	64051	-37338
3291	638	200	200	64062	-37338
3292	638	200	200	64062	-37335
3293	638	200	200	64062	-37335
3294	636	200	200	64073	-37335
3295	637	200	200	64073	-37333
3296	638	200	200	64073	-37333
3297	638	200	200	64086	-37333
3298	638	200	200	64086	-37331
3299	638	200	200	64086	-37331
3300	636	200	200	64096	-37331
3301	637	200	200	64096	-37329
3302	638	200	200	64096	-37329
3303	638	200	200	64106	-37329
3304	638	200	200	64106	-37329
3305	638	200	200	64106	-37326
3306	636	200	200	64117	-37326
3307	638	200	200	64117	-37326
3308	638	200	200	64117	-37324
3309	638	200	200	64127	-37324
3310	638	200	200	64127	-37324
3311	638	200	200	64127	-37322
3312	637	200	200	64140	-37322
3313	637	200	200	64140	-37322
3314	637	200	200	64140	-37319
3315	637	200	200	64150	-37319
3316	638	200	200	64150	-37319
3317	638	200	200	64150	-37318
3318	637	200	200	64162	-37318
3319	636	200	200	64162	-37318
3320	637	200	200	64162	-37314
3321	638	200	200	64174	-37314
3322	636	200	200	64174	-37314
3323	637	200	200	64174	-37309
3324	637	200	200	64184	-37309
3325	638	200	200	64184	-37309
3326	638	200	200	64184	-37304
3327	638	200	200	64195	-37304
3328	638	200	200	64195	-37304
3329	637	200	200	64195	-37298
3330	637	200	200	64205	-37298
3331	638	200	200	64205	-37298
3332	637	200	200	64205	-37291
3333	637	200	200	64215	-37291
3334	637	200	200	64215	-37291
3335	637	200	200	64215	-37285
3336	637	200	200	64224	-37285
3337	638	200	200	64224	-37285
3338	637	200	200	64224	-37279
3339	637	200	200	64233	-37279
3340	638	200	200	64233	-37279
3341	637	200	200	64233	-37273
3342	637	200	200	64242	-37273
3343	637	200	200	64242	-37273
3344	638	200	200	64242	-37266
3345	637	200	200	64249	-37266
3346	637	200	200	64249	-37266
3347	638	200	200	64249	-37259
3348	638	200	200	64257	-37259
3349	637	200	200	64257	-37259
3350	638	200	200	64257	-37252
3351	637	200	200	64262	-37252
3352	637	200	200	64262	-37252
3353	637	200	200	64262	-37244
3354	637	200	200	64267	-37244
3355	637	200	200	64267	-37244
3356	637	200	200	64267	-37236
3357	638	200	200	64267	-37236
3358	637	200	200	64271	-37236
3359	638	200	200	64271	-37229
3360	637	200	200	64271	-37229
3361	638	200	200	64274	-37229
3362	637	200	200	64274	-37222
3363	637	200	200	64274	-37222
3364	637	200	200	64276	-37222
3365	638	200	200	64276	-37214
3366	638	200	200	64276	-37214
3367	637	200	200	64279	-37214
3368	638	200	200	64279	-37205
3369	637	200	200	64279	-37205
3370	637	200	200	64282	-37205
3371	638	200	200	64282	-37196
3372	637	200	200	64282	-37196
3373	637	200	200	64284	-37196
3374	637	200	200	64284	-37187
3375	638	200	200	64284	-37187
3376	638	200	200	64289	-37187
3377	638	200	200	64289	-37177
3378	638	200	200	64289	-37177
3379	637	200	200	64298	-37177
3380	636	200	200	64298	-37166
3381	638	200	200	64298	-37166
3382	638	200	200	64308	-37166
3383	638	200	200	64308	-37156
3384	638	200	200	64308	-37156
3385	637	200	200	64319	-37156
3386	636	200	200	64319	-37146
3387	637	200	200	64319	-37146
3388	635	200	200	64330	-37146
3389	637	200	200	64330	-37137
3390	638	200	200	64330	-37137
3391	638	200	200	64342	-37137
3392	638	200	200	64342	-37127
3393	637	200	200	64342	-37127
3394	636	200	200	64355	-37127
3395	638	200	200	64355	-37118
3396	636	200	200	64355	-37118
3397	637	200	200	64368	-37118
3398	638	200	200	64368	-37108
3399	637	200	200	64368	-37108
3400	637	200	200	64381	-37108
3401	637	200	200	64381	-37098
3402	637	200	200	64381	-37098
3403	638	200	200	64395	-37098
3404	638	200	200	64395	-37089
3405	638	200	200	64395	-37089
3406	638	200	200	64410	-37089
3407	637	200	200	64410	-37079
3408	637	200	200	64410	-37079
3409	638	200	200	64426	-37079
3410	636	200	200	64426	-37070
3411	638	200	200	64426	-37070
3412	638	200	200	64441	-37070
3413	638	200	200	64441	-37061
3414	637	200	200	64441	-37061
3415	636	200	200	64455	-37061
3416	637	200	200	64455	-37054
3417	638	200	200	64455	-37054
3418	637	200	200	64469	-37054
3419	638	200	200	64469	-37047
3420	637	200	200	64469	-37047
3421	637	200	200	64483	-37047
3422	638	200	200	64483	-37047
3423	638	200	200	64483	-37039
3424	638	200	200	64496	-37039
3425	637	200	200	64496	-37039
3426	637	200	200	64496	-37031
3427	637	200	200	64509	-37031
3428	637	200	200	64509	-37031
3429	638	200	200	64509	-37024
3430	637	200	200	64522	-37024
3431	637	200	200	64522	-37024
3432	636	200	200	64522	-37017
3433	638	200	200	64537	-37017
3434	638	200	200	64537	-37017
3435	637	200	200	64537	-37011
3436	638	200	200	64551	-37011
3437	637	200	200	64551	-37011
3438	637	200	200	64551	-37005
3439	638	200	200	64564	-37005
3440	637	200	200	64564	-37005
3441	638	200	200	64564	-37000
3442	637	200	200	64576	-37000
3443	637	200	200	64576	-37000
3444	637	200	200	64576	-36996
3445	638	200	200	64586	-36996
3446	638	200	200	64586	-36996
3447	637	200	200	64586	-36994
3448	638	200	200	64595	-36994
3449	637	200	200	64595	-36994
3450	637	200	200	64595	-36993
3451	637	200	200	64604	-36993
3452	638	200	200	64604	-36993
3453	637	200	200	64604	-36991
3454	637	200	200	64613	-36991
3455	636	200	200	64613	-36991
3456	638	200	200	64613	-36988
3457	637	200	200	64622	-36988
3458	637	200	200	64622	-36988
3459	638	200	200	64622	-36986
3460	637	200	200	64631	-36986
3461	638	200	200	64631	-36986
3462	637	200	200	64631	-36982
3463	638	200	200	64640	-36982
3464	637	200	200	64640	-36982
3465	637	200	200	64640	-36979
3466	637	200	200	64652	-36979
3467	638	200	200	64652	-36979
3468	638	200	200	64652	-36974
3469	637	200	200	64663	-36974
3470	638	200	200	64663	-36974
3471	638	200	200	64663	-36970
3472	638	200	200	64675	-36970
3473	638	200	200	64675	-36970
3474	637	200	200	64675	-36965
3475	637	200	200	64675	-36965
3476	638	200	200	64687	-36965
3477	637	200	200	64687	-36960
3478	638	200	200	64687	-36960
3479	638	200	200	64700	-36960
3480	637	200	200	64700	-36954
3481	637	200	200	64700	-36954
3482	637	200	200	64714	-36954
3483	636	200	200	64714	-36948
3484	638	200	200	64714	-36948
3485	638	200	200	64728	-36948
3486	637	200	200	64728	-36943
3487	636	200	200	64728	-36943
3488	636	200	200	64743	-36943
3489	638	200	200	64743	-36936
3490	637	200	200	64743	-36936
3491	638	200	200	64756	-36936
3492	638	200	200	64756	-36929
3493	637	200	200	64756	-36929
3494	637	200	200	64770	-36929
3495	637	200	200	64770	-36922
3496	637	200	200	64770	-36922
3497	636	200	200	64786	-36922
3498	638	200	200	64786	-36914
3499	638	200	200	64786	-36914
3500	637	200	200	64801	-36914
3501	637	200	200	64801	-36905
3502	638	200	200	64801	-36905
3503	637	200	200	64815	-36905
3504	638	200	200	64815	-36897
3505	638	200	200	64815	-36897
3506	637	200	200	64828	-36897
3507	636	200	200	64828	-36888
3508	638	200	200	64828	-36888
3509	638	200	200	64840	-36888
3510	637	200	200	64840	-36881
3511	638	200	200	64840	-36881
3512	638	200	200	64854	-36881
3513	637	200	200	64854	-36873
3514	637	200	200	64854	-36873
3515	638	200	200	64867	-36873
3516	637	200	200	64867	-36866
3517	638	200	200	64867	-36866
3518	638	200	200	64881	-36866
3519	637	200	200	64881	-36857
3520	638	200	200	64881	-36857
3521	638	200	200	64893	-36857
3522	638	200	200	64893	-36847
3523	638	200	200	64893	-36847
3524	636	200	200	64906	-36847
3525	638	200	200	64906	-36838
3526	637	200	200	64906	-36838
3527	636	200	200	64918	-36838
3528	637	200	200	64918	-36830
3529	636	200	200	64918	-36830
3530	638	200	200	64928	-36830
3531	636	200	200	64928	-36821
3532	638	200	200	64928	-36821
3533	638	200	200	64939	-36821
3534	637	200	200	64939	-36813
3535	638	200	200	64939	-36813
3536	637	200	200	64947	-36813
3537	638	200	200	64947	-36813
3538	637	200	200	64947	-36805
3539	637	200	200	64956	-36805
3540	637	200	200	64956	-36805
3541	637	200	200	64956	-36796
3542	638	200	200	64963	-36796
3543	637	200	200	64963	-36796
3544	638	200	200	64963	-36787
3545	636	200	200	64970	-36787
3546	637	200	200	64970	-36787
3547	636	200	200	64970	-36779
3548	637	200	200	64976	-36779
3549	637	200	200	64976	-36779
3550	637	200	200	64976	-36771
3551	637	200	200	64984	-36771
3552	637	200	200	64984	-36771
3553	638	200	200	64984	-36762
3554	638	200	200	64995	-36762
3555	638	200	200	64995	-36762
3556	638	200	200	64995	-36754
3557	638	200	200	65005	-36754
3558	637	200	200	65005	-36754
3559	637	200	200	65005	-36746
3560	637	200	200	65015	-36746
3561	638	200	200	65015	-36746
3562	638	200	200	65015	-36738
3563	637	200	200	65026	-36738
3564	638	200	200	65026	-36738
3565	637	200	200	65026	-36730
3566	638	200	200	65038	-36730
3567	638	200	200	65038	-36730
3568	637	200	200	65038	-36722
3569	638	200	200	65052	-36722
3570	638	200	200	65052	-36722
3571	637	200	200	65052	-36715
3572	636	200	200	65064	-36715
3573	637	200	200	65064	-36715
3574	636	200	200	65064	-36709
3575	638	200	200	65077	-36709
3576	638	200	200	65077	-36709
3577	638	200	200	65077	-36704
3578	637	200	200	65089	-36704
3579	637	200	200	65089	-36704
3580	637	200	200	65089	-36698
3581	637	200	200	65102	-36698
3582	637	200	200	65102	-36698
3583	638	200	200	65102	-36692
3584	637	200	200	65116	-36692
3585	637	200	200	65116	-36692
3586	637	200	200	65116	-36686
3587	637	200	200	65130	-36686
3588	637	200	200	65130	-36686
3589	638	200	200	65130	-36681
3590	637	200	200	65143	-36681
3591	637	200	200	65143	-36681
3592	636	200	200	65143	-36675
3593	638	200	200	65143	-36675
3594	638	200	200	65154	-36675
3595	637	200	200	65154	-36669
3596	638	200	200	65154	-36669
3597	638	200	200	65167	-36669
3598	638	200	200	65167	-36664
3599	637	200	200	65167	-36664
3600	637	200	200	65180	-36664
3601	636	200	200	65180	-36659
3602	638	200	200	65180	-36659
3603	638	200	200	65191	-36659
3604	637	200	200	65191	-36655
3605	635	200	200	65191	-36655
3606	635	200	200	65203	-36655
3607	637	200	200	65203	-36651
3608	637	200	200	65203	-36651
3609	638	200	200	65215	-36651
3610	638	200	200	65215	-36648
3611	637	200	200	65215	-36648
3612	637	200	200	65227	-36648
3613	637	200	200	65227	-36646
3614	637	200	200	65227	-36646
3615	637	200	200	65238	-36646
3616	638	200	200	65238	-36644
3617	638	200	200	65238	-36644
3618	637	200	200	65249	-36644
3619	637	200	200	65249	-36642
3620	637	200	200	65249	-36642
3621	637	200	200	65259	-36642
3622	638	200	200	65259	-36640
3623	637	200	200	65259	-36640
3624	637	200	200	65266	-36640
3625	637	200	200	65266	-36638
3626	636	200	200	65266	-36638
3627	638	200	200	65272	-36638
3628	637	200	200	65272	-36637
3629	639	200	200	65272	-36637
3630	640	200	200	65278	-36637
3631	641	200	200	65278	-36635
3632	641	200	200	65278	-36635
3633	642	200	200	65285	-36635
3634	642	200	200	65285	-36634
3635	642	200	200	65285	-36634
3636	642	200	200	65292	-36634
3637	641	200	200	65292	-36633
3638	642	200	200	65292	-36633
3639	642	200	200	65300	-36633
3640	642	200	200	65300	-36632
3641	642	200	200	65300	-36632
3642	641	200	200	65308	-36632
3643	642	200	200	65308	-36631
3644	641	200	200	65308	-36631
3645	642	200	200	65315	-36631
3646	642	200	200	65315	-36630
3647	641	200	200	65315	-36630
3648	642	200	200	65323	-36630
3649	642	200	200	65323	-36629
3650	641	200	200	65323	-36629
3651	641	200	200	65331	-36629
3652	641	200	200	65331	-36627
3653	641	200	200	65331	-36627
3654	642	200	200	65341	-36627
3655	642	200	200	65341	-36626
3656	642	200	200	65341	-36626
3657	642	200	200	65350	-36626
3658	642	200	200	65350	-36626
3659	641	200	200	65350	-36624
3660	642	200	200	65360	-36624
3661	642	200	200	65360	-36624
3662	642	200	200	65360	-36622
3663	642	200	200	65371	-36622
3664	641	200	200	65371	-36622
3665	642	200	200	65371	-36620
3666	641	200	200	65384	-36620
3667	642	200	200	65384	-36620
3668	642	200	200	65384	-36618
3669	641	200	200	65398	-36618
3670	640	200	200	65398	-36618
3671	641	200	200	65398	-36616
3672	642	200	200	65412	-36616
3673	642	200	200	65412	-36616
3674	642	200	200	65412	-36615
3675	641	200	200	65427	-36615
3676	641	200	200	65427	-36615
3677	642	200	200	65427	-36613
3678	641	200	200	65440	-36613
3679	641	200	200	65440	-36613
3680	642	200	200	65440	-36611
3681	642	200	200	65453	-36611
3682	642	200	200	65453	-36611
3683	642	200	200	65453	-36609
3684	641	200	200	65466	-36609
3685	640	200	200	65466	-36609
3686	642	200	200	65466	-36607
3687	641	200	200	65478	-36607
3688	641	200	200	65478	-36607
3689	641	200	200	65478	-36604
3690	641	200	200	65491	-36604
3691	641	200	200	65491	-36604
3692	642	200	200	65491	-36602
3693	642	200	200	65504	-36602
3694	642	200	200	65504	-36602
3695	640	200	200	65504	-36599
3696	642	200	200	65518	-36599
3697	642	200	200	65518	-36599
3698	642	200	200	65518	-36596
3699	642	200	200	65531	-36596
3700	642	200	200	65531	-36596
3701	641	200	200	65531	-36593
3702	642	200	200	65544	-36593
3703	642	200	200	65544	-36593
3704	641	200	200	65544	-36590
3705	642	200	200	65557	-36590
3706	642	200	200	65557	-36590
3707	642	200	200	65557	-36587
3708	641	200	200	65570	-36587
3709	641	200	200	65570	-36587
3710	641	200	200	65570	-36584
3711	642	200	200	65570	-36584
3712	642	200	200	65582	-36584
3713	641	200	200	65582	-36581
3714	640	200	200	65582	-36581
3715	641	200	200	65593	-36581
3716	641	200	200	65593	-36577
3717	642	200	200	65593	-36577
3718	642	200	200	65603	-36577
3719	641	200	200	65603	-36573
3720	641	200	200	65603	-36573
3721	642	200	200	65612	-36573
3722	641	200	200	65612	-36568
3723	642	200	200	65612	-36568
3724	641	200	200	65620	-36568
3725	641	200	200	65620	-36564
3726	640	200	200	65620	-36564
3727	641	200	200	65629	-36564
3728	642	200	200	65629	-36559
3729	641	200	200	65629	-36559
3730	641	200	200	65637	-36559
3731	641	200	200	65637	-36554
3732	642	200	200	65637	-36554
3733	642	200	200	65643	-36554
3734	641	200	200	65643	-36549
3735	642	200	200	65643	-36549
3736	642	200	200	65650	-36549
3737	642	200	200	65650	-36544
3738	642	200	200	65650	-36544
3739	641	200	200	65656	-36544
3740	641	200	200	65656	-36540
3741	642	200	200	65656	-36540
3742	641	200	200	65663	-36540
3743	641	200	200	65663	-36536
3744	642	200	200	65663	-36536
3745	642	200	200	65670	-36536
3746	642	200	200	65670	-36532
3747	642	200	200	65670	-36532
3748	641	200	200	65677	-36532
3749	641	200	200	65677	-36528
3750	641	200	200	65677	-36528
3751	642	200	200	65686	-36528
3752	641	200	200	65686	-36522
3753	641	200	200	65686	-36522
3754	641	200	200	65695	-36522
3755	641	200	200	65695	-36517
3756	641	200	200	65695	-36517
3757	641	200	200	65703	-36517
3758	641	200	200	65703	-36511
3759	642	200	200	65703	-36511
3760	642	200	200	65712	-36511
3761	642	200	200	65712	-36505
3762	642	200	200	65712	-36505
3763	642	200	200	65721	-36505
3764	642	200	200	65721	-36498
3765	642	200	200	65721	-36498
3766	642	200	200	65731	-36498
3767	641	200	200	65731	-36491
3768	641	200	200	65731	-36491
3769	641	200	200	65741	-36491
3770	642	200	200	65741	-36485
3771	642	200	200	65741	-36485
3772	642	200	200	65752	-36485
3773	642	200	200	65752	-36479
3774	642	200	200	65752	-36479
3775	641	200	200	65764	-36479
3776	640	200	200	65764	-36473
3777	640	200	200	65764	-36473
3778	642	200	200	65775	-36473
3779	642	200	200	65775	-36473
3780	641	200	200	65775	-36466
3781	640	200	200	65784	-36466
3782	642	200	200	65784	-36466
3783	641	200	200	65784	-36459
3784	642	200	200	65794	-36459
3785	642	200	200	65794	-36459
3786	641	200	200	65794	-36452
3787	641	200	200	65807	-36452
3788	640	200	200	65807	-36452
3789	641	200	200	65807	-36446
3790	641	200	200	65818	-36446
3791	642	200	200	65818	-36446
3792	641	200	200	65818	-36440
3793	641	200	200	65830	-36440
3794	639	200	200	65830	-36440
3795	640	200	200	65830	-36434
3796	641	200	200	65840	-36434
3797	642	200	200	65840	-36434
3798	642	200	200	65840	-36429
3799	641	200	200	65849	-36429
3800	639	200	200	65849	-36429
3801	640	200	200	65849	-36424
3802	641	200	200	65858	-36424
3803	642	200	200	65858	-36424
3804	642	200	200	65858	-36419
3805	640	200	200	65867	-36419
3806	640	200	200	65867	-36419
3807	640	200	200	65867	-36414
3808	641	200	200	65876	-36414
3809	642	200	200	65876	-36414
3810	642	200	200	65876	-36410
3811	641	200	200	65886	-36410
3812	641	200	200	65886	-36410
3813	641	200	200	65886	-36405
3814	642	200	200	65894	-36405
3815	642	200	200	65894	-36405
3816	641	200	200	65894	-36401
3817	641	200	200	65903	-36401
3818	640	200	200	65903	-36401
3819	640	200	200	65903	-36396
3820	642	200	200	65911	-36396
3821	641	200	200	65911	-36396
3822	641	200	200	65911	-36392
3823	641	200	200	65919	-36392
3824	642	200	200	65919	-36392
3825	641	200	200	65919	-36387
3826	642	200	200	65928	-36387
3827	642	200	200	65928	-36387
3828	642	200	200	65928	-36383
3829	642	200	200	65928	-36383
3830	642	200	200	65935	-36383
3831	641	200	200	65935	-36378
3832	642	200	200	65935	-36378
3833	641	200	200	65943	-36378
3834	642	200	200	65943	-36374
3835	641	200	200	65943	-36374
3836	641	200	200	65949	-36374
3837	642	200	200	65949	-36371
3838	642	200	200	65949	-36371
3839	641	200	200	65953	-36371
3840	642	200	200	65953	-36369
3841	642	200	200	65953	-36369
3842	642	200	200	65956	-36369
3843	641	200	200	65956	-36368
3844	642	200	200	65956	-36368
3845	641	200	200	65959	-36368
3846	642	200	200	65959	-36366
3847	640	200	200	65959	-36366
3848	641	200	200	65961	-36366
3849	641	200	200	65961	-36365
3850	642	200	200	65961	-36365
3851	642	200	200	65962	-36365
3852	641	200	200	65962	-36363
3853	642	200	200	65962	-36363
3854	641	200	200	65962	-36363
3855	641	200	200	65962	-36362
3856	641	200	200	65962	-36362
3857	642	200	200	65962	-36362
3858	642	200	200	65962	-36361
3859	641	200	200	65962	-36361
3860	641	200	200	65962	-36361
3861	641	200	200	65962	-36359
3862	641	200	200	65962	-36359
3863	642	200	200	65963	-36359
3864	642	200	200	65963	-36358
3865	641	200	200	65963	-36358
3866	641	200	200	65963	-36358
3867	641	200	200	65963	-36356
3868	641	200	200	65963	-36356
3869	642	200	200	65963	-36356
3870	642	200	200	65963	-36355
3871	642	200	200	65963	-36355
3872	642	200	200	65963	-36355
3873	642	200	200	65963	-36353
3874	640	200	200	65963	-36353
3875	642	200	200	65963	-36353
3876	642	200	200	65963	-36351
3877	642	200	200	65963	-36351
3878	642	200	200	65963	-36351
3879	642	200	200	65963	-36349
3880	642	200	200	65963	-36349
3881	641	200	200	65963	-36349
3882	641	200	200	65963	-36347
3883	640	200	200	65963	-36347
3884	642	200	200	65963	-36347
3885	642	200	200	65963	-36345
3886	642	200	200	65963	-36345
3887	641	200	200	65963	-36345
3888	641	200	200	65963	-36342
3889	642	200	200	65963	-36342
3890	641	200	200	65964	-36342
3891	641	200	200	65964	-36340
3892	642	200	200	65964	-36340
3893	641	200	200	65964	-36340
3894	642	200	200	65964	-36340
3895	641	200	200	65964	-36337
3896	642	200	200	65964	-36337
3897	642	200	200	65964	-36337
3898	642	200	200	65964	-36334
3899	642	200	200	65964	-36334
3900	641	200	200	65964	-36334
3901	641	200	200	65964	-36332
3902	642	200	200	65964	-36332
3903	641	200	200	65964	-36332
3904	642	200	200	65964	-36330
3905	642	200	200	65964	-36330
3906	642	200	200	65964	-36330
3907	641	200	200	65964	-36328
3908	642	200	200	65964	-36328
3909	641	200	200	65964	-36328
3910	642	200	200	65964	-36326
3911	642	200	200	65964	-36326
3912	641	200	200	65964	-36326
3913	641	200	200	65964	-36324
3914	642	200	200	65964	-36324
3915	641	200	200	65964	-36324
3916	641	200	200	65964	-36323
3917	642	200	200	65964	-36323
3918	641	200	200	65964	-36323
3919	642	200	200	65964	-36321
3920	642	200	200	65964	-36321
3921	642	200	200	65964	-36321
3922	642	200	200	65964	-36320
3923	641	200	200	65965	-36320
3924	642	200	200	65965	-36320
3925	641	200	200	65965	-36319
3926	642	200	200	65965	-36319
3927	641	200	200	65965	-36319
3928	641	200	200	65965	-36318
3929	641	200	200	65965	-36318
3930	641	200	200	65965	-36318
3931	642	200	200	65965	-36317
3932	641	200	200	65965	-36317
3933	641	200	200	65965	-36317
3934	641	200	200	65965	-36316
3935	642	200	200	65965	-36316
3936	641	200	200	65965	-36316
3937	641	200	200	65965	-36315
3938	642	200	200	65965	-36315
3939	641	200	200	65965	-36315
3940	642	200	200	65965	-36314
3941	642	200	200	65965	-36314
3942	642	200	200	65965	-36314
3943	642	200	200	65965	-36313
3944	642	200	200	65965	-36313
3945	642	200	200	65965	-36313
3946	642	200	200	65965	-36312
3947	642	200	200	65965	-36312
3948	642	200	200	65965	-36312
3949	641	200	200	65965	-36311
3950	641	200	200	65965	-36311
3951	641	200	200	65965	-36311
3952	642	200	200	65965	-36310
3953	641	200	200	65965	-36310
3954	642	200	200	65965	-36310
3955	641	200	200	65965	-36309
3956	642	200	200	65965	-36309
3957	641	200	200	65965	-36309
3958	641	200	200	65965	-36308
3959	642	200	200	65965	-36308
3960	641	200	200	65965	-36308
3961	642	200	200	65965	-36307
3962	642	200	200	65965	-36307
3963	642	200	200	65965	-36307
3964	642	200	200	65965	-36306
3965	641	200	200	65965	-36306
3966	640	200	200	65966	-36306
3967	640	200	200	65966	-36305
3968	641	200	200	65966	-36305
3969	641	200	200	65966	-36305
3970	642	200	200	65966	-36305
3971	641	200	200	65966	-36305
3972	642	200	200	65966	-36305
3973	642	200	200	65966	-36304
3974	642	200	200	65966	-36304
3975	642	200	200	65966	-36304
3976	642	200	200	65966	-36303
3977	642	200	200	65966	-36303
3978	642	200	200	65966	-36303
3979	642	200	200	65966	-36302
3980	642	200	200	65966	-36302
3981	641	200	200	65966	-36302
3982	642	200	200	65966	-36302
3983	642	200	200	65966	-36302
3984	642	200	200	65966	-36302
3985	641	200	200	65966	-36301
3986	642	200	200	65966	-36301
3987	641	200	200	65966	-36301
3988	642	200	200	65966	-36301
3989	642	200	200	65966	-36301
3990	642	200	200	65966	-36301
3991	642	200	200	65966	-36300
3992	642	200	200	65966	-36300
3993	641	200	200	65966	-36300
3994	642	200	200	65966	-36299
3995	642	200	200	65966	-36299
3996	642	200	200	65966	-36299
3997	642	200	200	65966	-36299
3998	642	200	200	65966	-36299
3999	641	200	200	65966	-36299
4000	642	0	200	65966	-36298
4001	642	0	200	65966	-36298
4002	641	0	200	65967	-36298
4003	642	0	200	65967	-36296
4004	642	0	200	65967	-36296
4005	642	0	200	65967	-36296
4006	640	0	200	65967	-36308
4007	641	0	200	65967	-36308
4008	642	0	200	65967	-36308
4009	641	0	200	65967	-36347
4010	642	0	200	65967	-36347
4011	642	0	200	65967	-36347
4012	642	0	200	65967	-36410
4013	640	0	200	65967	-36410
4014	641	0	200	65967	-36410
4015	642	0	200	65967	-36500
4016	642	0	200	65967	-36500
4017	642	0	200	65967	-36500
4018	642	0	200	65967	-36609
4019	642	0	200	65967	-36609
4020	641	0	200	65967	-36609
4021	641	0	200	65967	-36733
4022	641	0	200	65967	-36733
4023	642	0	200	65967	-36733
4024	642	0	200	65967	-36868
4025	641	0	200	65967	-36868
4026	641	0	200	65967	-36868
4027	642	0	200	65967	-36868
4028	641	0	200	65967	-37014
4029	642	0	200	65967	-37014
4030	642	0	200	65967	-37014
4031	641	0	200	65967	-37171
4032	642	0	200	65967	-37171
4033	642	0	200	65967	-37171
4034	641	0	200	65967	-37335
4035	641	0	200	65967	-37335
4036	641	0	200	65967	-37335
4037	641	0	200	65967	-37506
4038	641	0	200	65967	-37506
4039	641	0	200	65967	-37506
4040	642	0	200	65967	-37684
4041	641	0	200	65967	-37684
4042	642	0	200	65967	-37684
