0	0	0	0	46609	0
1	0	0	0	46609	0
2	0	0	0	46609	0
3	642	0	0	46609	0
4	641	0	0	46609	0
5	642	0	0	46609	0
6	641	0	0	46609	0
7	641	0	0	46609	-51300
8	642	0	0	46609	-51300
9	641	0	0	46609	-51300
10	641	300	300	46609	-51300
11	641	300	300	46609	-51300
12	642	300	300	46609	-51300
13	642	300	300	46609	-51300
14	641	300	300	46609	-51300
15	642	300	300	46647	-51300
16	641	300	300	46647	-51260
17	642	300	300	46647	-51260
18	641	300	300	46734	-51260
19	642	300	300	46734	-51164
20	642	300	300	46734	-51164
21	642	300	300	46835	-51164
22	642	300	300	46835	-51054
23	642	300	300	46835	-51054
24	641	300	300	46942	-51054
25	641	300	300	46942	-50931
26	642	300	300	46942	-50931
27	641	300	300	47054	-50931
28	642	300	300	47054	-50800
29	642	300	300	47054	-50800
30	642	300	300	47169	-50800
31	641	300	300	47169	-50671
32	642	300	300	47169	-50671
33	641	300	300	47282	-50671
34	642	300	300	47282	-50539
35	641	300	300	47282	-50539
36	642	300	300	47398	-50539
37	641	300	300	47398	-50405
38	641	300	300	47398	-50405
39	642	300	300	47511	-50405
40	642	300	300	47511	-50405
41	642	300	300	47511	-50273
42	642	300	300	47624	-50273
43	642	300	300	47624	-50273
44	642	300	300	47624	-50141
45	642	300	300	47734	-50141
46	646	300	300	47734	-50141
47	645	300	300	47734	-50007
48	646	300	300	47846	-50007
49	645	300	300	47846	-50007
50	646	300	300	47846	-49872
51	644	300	300	47955	-49872
52	644	300	300	47955	-49872
53	646	300	300	47955	-49740
54	645	300	300	48065	-49740
55	645	300	300	48065	-49740
56	645	300	300	48065	-49606
57	648	300	300	48174	-49606
58	648	300	300	48174	-49606
59	650	300	300	48174	-49470
60	650	300	300	48282	-49470
61	649	300	300	48282	-49470
62	649	300	300	48282	-49336
63	649	300	300	48391	-49336
64	650	300	300	48391	-49336
65	649	300	300	48391	-49201
66	653	300	300	48499	-49201
67	654	300	300	48499	-49201
68	654	300	300	48499	-49066
69	652	300	300	48609	-49066
70	653	300	300	48609	-49066
71	654	300	300	48609	-48935
72	653	300	300	48719	-48935
73	654	300	300	48719	-48935
74	657	300	300	48719	-48799
75	658	300	300	48827	-48799
76	657	300	300	48827	-48799
77	658	300	300	48827	-48667
78	658	300	300	48937	-48667
79	658	300	300	48937	-48667
80	658	300	300	48937	-48535
81	658	300	300	49047	-48535
82	662	300	300	49047	-48535
83	661	300	300	49047	-48404
84	662	300	300	49047	-48404
85	662	300	300	49156	-48404
86	662	300	300	49156	-48273
87	661	300	300	49156	-48273
88	664	300	300	49268	-48273
89	666	300	300	49268	-48145
90	665	300	300	49268	-48145
91	666	300	300	49376	-48145
92	666	300	300	49376	-48014
93	666	300	300	49376	-48014
94	665	300	300	49492	-48014
95	666	300	300	49492	-47887
96	670	300	300	49492	-47887
97	670	300	300	49605	-47887
98	670	300	300	49605	-47760
99	670	300	300	49605	-47760
100	670	300	300	49721	-47760
101	670	300	300	49721	-47635
102	670	300	300	49721	-47635
103	673	300	300	49835	-47635
104	674	300	300	49835	-47511
105	674	300	300	49835	-47511
106	674	300	300	49949	-47511
107	674	300	300	49949	-47387
108	674	300	300	49949	-47387
109	674	300	300	50063	-47387
110	674	300	300	50063	-47266
111	674	300	300	50063	-47266
112	674	300	300	50178	-47266
113	677	300	300	50178	-47148
114	678	300	300	50178	-47148
115	678	300	300	50292	-47148
116	678	300	300	50292	-47031
117	678	300	300	50292	-47031
118	678	300	300	50405	-47031
119	678	300	300	50405	-46919
120	678	300	300	50405	-46919
121	677	300	300	50514	-46919
122	678	300	300	50514	-46806
123	678	300	300	50514	-46806
124	678	300	300	50623	-46806
125	678	300	300	50623	-46695
126	678	300	300	50623	-46695
127	678	300	300	50732	-46695
128	678	300	300	50732	-46592
129	677	300	300	50732	-46592
130	678	300	300	50837	-46592
131	679	300	300	50837	-46487
132	678	300	300	50837	-46487
133	678	300	300	50938	-46487
134	678	300	300	50938	-46384
135	678	300	300	50938	-46384
136	678	300	300	51036	-46384
137	678	300	300	51036	-46283
138	677	300	300	51036	-46283
139	677	300	300	51134	-46283
140	677	300	300	51134	-46185
141	677	300	300	51134	-46185
142	678	300	300	51232	-46185
143	677	300	300	51232	-46092
144	678	300	300	51232	-46092
145	677	300	300	51327	-46092
146	678	300	300	51327	-45991
147	678	300	300	51327	-45991
148	678	300	300	51420	-45991
149	678	300	300	51420	-45897
150	678	300	300	51420	-45897
151	678	300	300	51519	-45897
152	677	300	300	51519	-45802
153	678	300	300	51519	-45802
154	676	300	300	51614	-45802
155	674	300	300	51614	-45708
156	673	300	300	51614	-45708
157	674	300	300	51709	-45708
158	674	300	300	51709	-45708
159	675	300	300	51709	-45615
160	674	300	300	51805	-45615
161	674	300	300	51805	-45615
162	675	300	300	51805	-45524
163	674	300	300	51897	-45524
164	674	300	300	51897	-45524
165	674	300	300	51897	-45429
166	672	300	300	51989	-45429
167	669	300	300	51989	-45429
168	669	300	300	51989	-45334
169	670	300	300	52082	-45334
170	670	300	300	52082	-45334
171	669	300	300	52082	-45242
172	669	300	300	52177	-45242
173	670	300	300	52177	-45242
174	670	300	300	52177	-45147
175	670	300	300	52268	-45147
176	667	300	300	52268	-45147
177	666	300	300	52268	-45051
178	666	300	300	52359	-45051
179	666	300	300	52359	-45051
180	666	300	300	52359	-44957
181	666	300	300	52454	-44957
182	664	300	300	52454	-44957
183	665	300	300	52454	-44865
184	665	300	300	52542	-44865
185	666	300	300	52542	-44865
186	666	300	300	52542	-44769
187	662	300	300	52632	-44769
188	662	300	300	52632	-44769
189	659	300	300	52632	-44676
190	661	300	300	52725	-44676
191	662	300	300	52725	-44676
192	661	300	300	52725	-44586
193	662	300	300	52815	-44586
194	661	300	300	52815	-44586
195	662	300	300	52815	-44493
196	660	300	300	52903	-44493
197	662	300	300	52903	-44493
198	662	300	300	52903	-44403
199	662	300	300	52903	-44403
200	661	300	300	52991	-44403
201	661	300	300	52991	-44311
202	662	300	300	52991	-44311
203	658	300	300	53078	-44311
204	658	300	300	53078	-44221
205	658	300	300	53078	-44221
206	658	300	300	53167	-44221
207	656	300	300	53167	-44133
208	658	300	300	53167	-44133
209	658	300	300	53252	-44133
210	658	300	300	53252	-44046
211	658	300	300	53252	-44046
212	658	300	300	53339	-44046
213	657	300	300	53339	-43956
214	658	300	300	53339	-43956
215	658	300	300	53423	-43956
216	658	300	300	53423	-43870
217	658	300	300	53423	-43870
218	657	300	300	53507	-43870
219	658	300	300	53507	-43782
220	657	300	300	53507	-43782
221	658	300	300	53593	-43782
222	658	300	300	53593	-43692
223	658	300	300	53593	-43692
224	658	300	300	53678	-43692
225	658	300	300	53678	-43610
226	658	300	300	53678	-43610
227	658	300	300	53763	-43610
228	658	300	300	53763	-43525
229	657	300	300	53763	-43525
230	657	300	300	53847	-43525
231	657	300	300	53847	-43440
232	657	300	300	53847	-43440
233	658	300	300	53930	-43440
234	658	300	300	53930	-43356
235	659	300	300	53930	-43356
236	657	300	300	54011	-43356
237	658	300	300	54011	-43271
238	658	300	300	54011	-43271
239	658	300	300	54097	-43271
240	658	300	300	54097	-43190
241	658	300	300	54097	-43190
242	658	300	300	54183	-43190
243	657	300	300	54183	-43107
244	658	300	300	54183	-43107
245	658	300	300	54266	-43107
246	658	300	300	54266	-43024
247	658	300	300	54266	-43024
248	657	300	300	54351	-43024
249	657	300	300	54351	-42943
250	657	300	300	54351	-42943
251	658	300	300	54438	-42943
252	658	300	300	54438	-42865
253	658	300	300	54438	-42865
254	658	300	300	54523	-42865
255	658	300	300	54523	-42785
256	658	300	300	54523	-42785
257	658	300	300	54605	-42785
258	658	300	300	54605	-42704
259	657	300	300	54605	-42704
260	657	300	300	54690	-42704
261	658	300	300	54690	-42627
262	658	300	300	54690	-42627
263	658	300	300	54777	-42627
264	658	300	300	54777	-42552
265	659	300	300	54777	-42552
266	658	300	300	54862	-42552
267	658	300	300	54862	-42478
268	658	300	300	54862	-42478
269	658	300	300	54946	-42478
270	658	300	300	54946	-42403
271	657	300	300	54946	-42403
272	653	300	300	55030	-42403
273	653	300	300	55030	-42328
274	653	300	300	55030	-42328
275	653	300	300	55111	-42328
276	652	300	300	55111	-42328
277	652	300	300	55111	-42256
278	652	300	300	55198	-42256
279	653	300	300	55198	-42256
280	654	300	300	55198	-42182
281	654	300	300	55279	-42182
282	654	300	300	55279	-42182
283	654	300	300	55279	-42111
284	654	300	300	55362	-42111
285	653	300	300	55362	-42111
286	653	300	300	55362	-42039
287	652	300	300	55446	-42039
288	652	300	300	55446	-42039
289	653	300	300	55446	-41969
290	653	300	300	55526	-41969
291	653	300	300	55526	-41969
292	653	300	300	55526	-41893
293	654	300	300	55611	-41893
294	654	300	300	55611	-41893
295	654	300	300	55611	-41823
296	654	300	300	55691	-41823
297	654	300	300	55691	-41823
298	654	300	300	55691	-41750
299	650	300	300	55772	-41750
300	650	300	300	55772	-41750
301	650	300	300	55772	-41678
302	650	300	300	55855	-41678
303	650	300	300	55855	-41678
304	650	300	300	55855	-41609
305	649	300	300	55930	-41609
306	649	300	300	55930	-41609
307	649	300	300	55930	-41541
308	649	300	300	56010	-41541
309	648	300	300	56010	-41541
310	649	300	300	56010	-41470
311	649	300	300	56090	-41470
312	650	300	300	56090	-41470
313	650	300	300	56090	-41402
314	650	300	300	56170	-41402
315	649	300	300	56170	-41402
316	649	300	300	56170	-41332
317	650	300	300	56170	-41332
318	645	300	300	56251	-41332
319	645	300	300	56251	-41261
320	645	300	300	56251	-41261
321	645	300	300	56330	-41261
322	646	300	300	56330	-41190
323	646	300	300	56330	-41190
324	646	300	300	56412	-41190
325	644	300	300	56412	-41118
326	646	300	300	56412	-41118
327	646	300	300	56492	-41118
328	646	300	300	56492	-41047
329	646	300	300	56492	-41047
330	646	300	300	56572	-41047
331	646	300	300	56572	-40974
332	646	300	300	56572	-40974
333	644	300	300	56648	-40974
334	645	300	300	56648	-40903
335	646	300	300	56648	-40903
336	646	300	300	56727	-40903
337	646	300	300	56727	-40835
338	646	300	300	56727	-40835
339	646	300	300	56809	-40835
340	644	300	300	56809	-40765
341	641	300	300	56809	-40765
342	642	300	300	56887	-40765
343	642	300	300	56887	-40695
344	642	300	300	56887	-40695
345	642	300	300	56965	-40695
346	642	300	300	56965	-40626
347	641	300	300	56965	-40626
348	641	300	300	57041	-40626
349	642	300	300	57041	-40557
350	642	300	300	57041	-40557
351	642	300	300	57120	-40557
352	642	300	300	57120	-40492
353	642	300	300	57120	-40492
354	640	300	300	57196	-40492
355	641	300	300	57196	-40424
356	642	300	300	57196	-40424
357	641	300	300	57272	-40424
358	641	300	300	57272	-40359
359	641	300	300	57272	-40359
360	642	300	300	57348	-40359
361	642	300	300	57348	-40292
362	642	300	300	57348	-40292
363	642	300	300	57426	-40292
364	642	300	300	57426	-40227
365	642	300	300	57426	-40227
366	642	300	300	57503	-40227
367	642	300	300	57503	-40161
368	642	300	300	57503	-40161
369	642	300	300	57576	-40161
370	642	300	300	57576	-40096
371	641	300	300	57576	-40096
372	638	300	300	57655	-40096
373	638	300	300	57655	-40033
374	638	300	300	57655	-40033
375	638	300	300	57729	-40033
376	638	300	300	57729	-39970
377	638	300	300	57729	-39970
378	637	300	300	57805	-39970
379	637	300	300	57805	-39908
380	638	300	300	57805	-39908
381	637	300	300	57883	-39908
382	637	300	300	57883	-39843
383	636	300	300	57883	-39843
384	637	300	300	57956	-39843
385	636	300	300	57956	-39784
386	636	300	300	57956	-39784
387	636	300	300	58032	-39784
388	636	300	300	58032	-39722
389	637	300	300	58032	-39722
390	636	300	300	58105	-39722
391	637	300	300	58105	-39665
392	637	300	300	58105	-39665
393	638	300	300	58180	-39665
394	638	300	300	58180	-39665
395	638	300	300	58180	-39605
396	637	300	300	58254	-39605
397	637	300	300	58254	-39605
398	636	300	300	58254	-39549
399	637	300	300	58330	-39549
400	637	300	300	58330	-39549
401	637	300	300	58330	-39491
402	636	300	300	58402	-39491
403	638	300	300	58402	-39491
404	636	300	300	58402	-39431
405	637	300	300	58476	-39431
406	637	300	300	58476	-39431
407	637	300	300	58476	-39374
408	637	300	300	58550	-39374
409	637	300	300	58550	-39374
410	638	300	300	58550	-39315
411	638	300	300	58625	-39315
412	638	300	300	58625	-39315
413	637	300	300	58625	-39256
414	637	300	300	58697	-39256
415	637	300	300	58697	-39256
416	637	300	300	58697	-39195
417	638	300	300	58771	-39195
418	638	300	300	58771	-39195
419	637	300	300	58771	-39136
420	636	300	300	58845	-39136
421	637	300	300	58845	-39136
422	638	300	300	58845	-39075
423	637	300	300	58920	-39075
424	638	300	300	58920	-39075
425	638	300	300	58920	-39017
426	638	300	300	58993	-39017
427	638	300	300	58993	-39017
428	638	300	300	58993	-38961
429	638	300	300	59063	-38961
430	637	300	300	59063	-38961
431	637	300	300	59063	-38902
432	637	300	300	59137	-38902
433	638	300	300	59137	-38902
434	637	300	300	59137	-38843
435	638	300	300	59207	-38843
436	638	300	300	59207	-38843
437	638	300	300	59207	-38786
438	636	300	300	59207	-38786
439	637	300	300	59282	-38786
440	638	300	300	59282	-38726
441	636	300	300	59282	-38726
442	637	300	300	59353	-38726
443	638	300	300	59353	-38666
444	638	300	300	59353	-38666
445	637	300	300	59428	-38666
446	637	300	300	59428	-38607
447	638	300	300	59428	-38607
448	637	300	300	59501	-38607
449	638	300	300	59501	-38550
450	638	300	300	59501	-38550
451	638	300	300	59571	-38550
452	637	300	300	59571	-38492
453	637	300	300	59571	-38492
454	638	300	300	59642	-38492
455	637	300	300	59642	-38437
456	637	300	300	59642	-38437
457	638	300	300	59716	-38437
458	638	300	300	59716	-38380
459	638	300	300	59716	-38380
460	638	300	300	59788	-38380
461	637	300	300	59788	-38325
462	638	300	300	59788	-38325
463	637	300	300	59860	-38325
464	638	300	300	59860	-38274
465	638	300	300	59860	-38274
466	637	300	300	59934	-38274
467	636	300	300	59934	-38215
468	636	300	300	59934	-38215
469	636	300	300	60003	-38215
470	637	300	300	60003	-38160
471	636	300	300	60003	-38160
472	637	300	300	60075	-38160
473	636	300	300	60075	-38101
474	637	300	300	60075	-38101
475	638	300	300	60144	-38101
476	637	300	300	60144	-38042
477	638	300	300	60144	-38042
478	638	300	300	60216	-38042
479	638	300	300	60216	-37985
480	638	300	300	60216	-37985
481	638	300	300	60284	-37985
482	638	300	300	60284	-37928
483	637	300	300	60284	-37928
484	637	300	300	60357	-37928
485	637	300	300	60357	-37872
486	637	300	300	60357	-37872
487	638	300	300	60427	-37872
488	637	300	300	60427	-37810
489	636	300	300	60427	-37810
490	637	300	300	60500	-37810
491	637	300	300	60500	-37752
492	637	300	300	60500	-37752
493	637	300	300	60571	-37752
494	637	300	300	60571	-37694
495	638	300	300	60571	-37694
496	637	300	300	60644	-37694
497	637	300	300	60644	-37639
498	638	300	300	60644	-37639
499	638	300	300	60715	-37639
500	637	300	300	60715	-37584
501	638	300	300	60715	-37584
502	638	300	300	60783	-37584
503	638	300	300	60783	-37528
504	638	300	300	60783	-37528
505	638	300	300	60852	-37528
506	638	300	300	60852	-37476
507	638	300	300	60852	-37476
508	638	300	300	60922	-37476
509	638	300	300	60922	-37418
510	638	300	300	60922	-37418
511	638	300	300	60991	-37418
512	637	300	300	60991	-37418
513	637	300	300	60991	-37364
514	638	300	300	61060	-37364
515	636	300	300	61060	-37364
516	637	300	300	61060	-37310
517	638	300	300	61126	-37310
518	638	300	300	61126	-37310
519	637	300	300	61126	-37254
520	637	300	300	61197	-37254
521	638	300	300	61197	-37254
522	637	300	300	61197	-37197
523	638	300	300	61263	-37197
524	638	300	300	61263	-37197
525	638	300	300	61263	-37137
526	637	300	300	61334	-37137
527	637	300	300	61334	-37137
528	638	300	300	61334	-37079
529	637	300	300	61401	-37079
530	638	300	300	61401	-37079
531	638	300	300	61401	-37020
532	638	300	300	61472	-37020
533	635	300	300	61472	-37020
534	637	300	300	61472	-36964
535	637	300	300	61541	-36964
536	637	300	300	61541	-36964
537	638	300	300	61541	-36908
538	638	300	300	61608	-36908
539	638	300	300	61608	-36908
540	638	300	300	61608	-36850
541	637	300	300	61673	-36850
542	638	300	300	61673	-36850
543	637	300	300	61673	-36793
544	638	300	300	61745	-36793
545	638	300	300	61745	-36793
546	638	300	300	61745	-36737
547	638	300	300	61811	-36737
548	637	300	300	61811	-36737
549	636	300	300	61811	-36680
550	638	300	300	61880	-36680
551	638	300	300	61880	-36680
552	638	300	300	61880	-36624
553	638	300	300	61947	-36624
554	638	300	300	61947	-36624
555	637	300	300	61947	-36569
556	637	300	300	61947	-36569
557	638	300	300	62016	-36569
558	638	300	300	62016	-36516
559	638	300	300	62016	-36516
560	638	300	300	62080	-36516
561	638	300	300	62080	-36461
562	638	300	300	62080	-36461
563	638	300	300	62149	-36461
564	638	300	300	62149	-36409
565	638	300	300	62149	-36409
566	638	300	300	62216	-36409
567	638	300	300	62216	-36357
568	638	300	300	62216	-36357
569	638	300	300	62285	-36357
570	637	300	300	62285	-36302
571	637	300	300	62285	-36302
572	638	300	300	62353	-36302
573	637	300	300	62353	-36251
574	637	300	300	62353	-36251
575	638	300	300	62424	-36251
576	637	300	300	62424	-36197
577	637	300	300	62424	-36197
578	637	300	300	62492	-36197
579	637	300	300	62492	-36142
580	637	300	300	62492	-36142
581	637	300	300	62562	-36142
582	636	300	300	62562	-36088
583	637	300	300	62562	-36088
584	636	300	300	62631	-36088
585	636	300	300	62631	-36031
586	636	300	300	62631	-36031
587	637	300	300	62701	-36031
588	636	300	300	62701	-35978
589	637	300	300	62701	-35978
590	636	300	300	62769	-35978
591	636	300	300	62769	-35927
592	637	300	300	62769	-35927
593	636	300	300	62836	-35927
594	637	300	300	62836	-35877
595	637	300	300	62836	-35877
596	637	300	300	62904	-35877
597	637	300	300	62904	-35827
598	637	300	300	62904	-35827
599	638	300	300	62973	-35827
600	637	300	300	62973	-35771
601	638	300	300	62973	-35771
602	638	300	300	63041	-35771
603	638	300	300	63041	-35720
604	638	300	300	63041	-35720
605	638	300	300	63108	-35720
606	637	300	300	63108	-35668
607	637	300	300	63108	-35668
608	637	300	300	63172	-35668
609	637	300	300	63172	-35615
610	638	300	300	63172	-35615
611	638	300	300	63241	-35615
612	636	300	300	63241	-35566
613	637	300	300	63241	-35566
614	637	300	300	63305	-35566
615	637	300	300	63305	-35514
616	638	300	300	63305	-35514
617	638	300	300	63373	-35514
618	638	300	300	63373	-35464
619	635	300	300	63373	-35464
620	637	300	300	63438	-35464
621	638	300	300	63438	-35414
622	637	300	300	63438	-35414
623	638	300	300	63506	-35414
624	638	300	300	63506	-35358
625	638	300	300	63506	-35358
626	636	300	300	63572	-35358
627	637	300	300	63572	-35309
628	638	300	300	63572	-35309
629	638	300	300	63638	-35309
630	637	300	300	63638	-35309
631	638	300	300	63638	-35260
632	638	300	300	63700	-35260
633	636	300	300	63700	-35260
634	638	300	300	63700	-35209
635	638	300	300	63770	-35209
636	638	300	300	63770	-35209
637	638	300	300	63770	-35157
638	637	300	300	63836	-35157
639	638	300	300	63836	-35157
640	636	300	300	63836	-35102
641	638	300	300	63903	-35102
642	638	300	300	63903	-35102
643	638	300	300	63903	-35050
644	638	300	300	63968	-35050
645	637	300	300	63968	-35050
646	637	300	300	63968	-34997
647	638	300	300	64034	-34997
648	637	300	300	64034	-34997
649	637	300	300	64034	-34945
650	638	300	300	64096	-34945
651	637	300	300	64096	-34945
652	636	300	300	64096	-34896
653	637	300	300	64160	-34896
654	638	300	300	64160	-34896
655	638	300	300	64160	-34844
656	638	300	300	64224	-34844
657	638	300	300	64224	-34844
658	638	300	300	64224	-34791
659	637	300	300	64288	-34791
660	638	300	300	64288	-34791
661	638	300	300	64288	-34739
662	638	300	300	64351	-34739
663	638	300	300	64351	-34739
664	637	300	300	64351	-34687
665	637	300	300	64416	-34687
666	638	300	300	64416	-34687
667	637	300	300	64416	-34634
668	637	300	300	64482	-34634
669	637	300	300	64482	-34634
670	637	300	300	64482	-34583
671	636	300	300	64547	-34583
672	636	300	300	64547	-34583
673	636	300	300	64547	-34532
674	637	300	300	64547	-34532
675	636	300	300	64612	-34532
676	637	300	300	64612	-34482
677	637	300	300	64612	-34482
678	637	300	300	64677	-34482
679	637	300	300	64677	-34433
680	638	300	300	64677	-34433
681	638	300	300	64743	-34433
682	638	300	300	64743	-34383
683	638	300	300	64743	-34383
684	638	300	300	64808	-34383
685	638	300	300	64808	-34336
686	638	300	300	64808	-34336
687	638	300	300	64871	-34336
688	638	300	300	64871	-34287
689	638	300	300	64871	-34287
690	638	300	300	64936	-34287
691	638	300	300	64936	-34239
692	638	300	300	64936	-34239
693	638	300	300	65001	-34239
694	638	300	300	65001	-34194
695	638	300	300	65001	-34194
696	638	300	300	65065	-34194
697	638	300	300	65065	-34144
698	638	300	300	65065	-34144
699	638	300	300	65130	-34144
700	638	300	300	65130	-34093
701	638	300	300	65130	-34093
702	638	300	300	65192	-34093
703	638	300	300	65192	-34044
704	638	300	300	65192	-34044
705	638	300	300	65256	-34044
706	638	300	300	65256	-33991
707	638	300	300	65256	-33991
708	638	300	300	65318	-33991
709	638	300	300	65318	-33942
710	637	300	300	65318	-33942
711	637	300	300	65379	-33942
712	638	300	300	65379	-33894
713	637	300	300	65379	-33894
714	637	300	300	65443	-33894
715	638	300	300	65443	-33847
716	637	300	300	65443	-33847
717	637	300	300	65504	-33847
718	638	300	300	65504	-33801
719	638	300	300	65504	-33801
720	637	300	300	65569	-33801
721	637	300	300	65569	-33750
722	638	300	300	65569	-33750
723	637	300	300	65631	-33750
724	638	300	300	65631	-33695
725	638	300	300	65631	-33695
726	638	300	300	65692	-33695
727	636	300	300	65692	-33646
728	637	300	300	65692	-33646
729	638	300	300	65751	-33646
730	637	300	300	65751	-33595
731	637	300	300	65751	-33595
732	638	300	300	65817	-33595
733	638	300	300	65817	-33547
734	637	300	300	65817	-33547
735	636	300	300	65878	-33547
736	638	300	300	65878	-33500
737	637	300	300	65878	-33500
738	638	300	300	65940	-33500
739	638	300	300	65940	-33451
740	638	300	300	65940	-33451
741	637	300	300	66000	-33451
742	637	300	300	66000	-33406
743	638	300	300	66000	-33406
744	637	300	300	66061	-33406
745	637	300	300	66061	-33360
746	638	300	300	66061	-33360
747	638	300	300	66121	-33360
748	638	300	300	66121	-33360
749	637	300	300	66121	-33309
750	636	300	300	66179	-33309
751	637	300	300	66179	-33309
752	637	300	300	66179	-33265
753	637	300	300	66243	-33265
754	638	300	300	66243	-33265
755	638	300	300	66243	-33220
756	637	300	300	66303	-33220
757	637	300	300	66303	-33220
758	638	300	300	66303	-33173
759	638	300	300	66366	-33173
760	638	300	300	66366	-33173
761	637	300	300	66366	-33127
762	638	300	300	66426	-33127
763	637	300	300	66426	-33127
764	637	300	300	66426	-33078
765	636	300	300	66490	-33078
766	637	300	300	66490	-33078
767	638	300	300	66490	-33026
768	638	300	300	66550	-33026
769	636	300	300	66550	-33026
770	637	300	300	66550	-32976
771	638	300	300	66611	-32976
772	638	300	300	66611	-32976
773	636	300	300	66611	-32925
774	638	300	300	66670	-32925
775	637	300	300	66670	-32925
776	638	300	300	66670	-32877
777	636	300	300	66730	-32877
778	638	300	300	66730	-32877
779	638	300	300	66730	-32830
780	638	300	300	66792	-32830
781	637	300	300	66792	-32830
782	638	300	300	66792	-32780
783	638	300	300	66852	-32780
784	638	300	300	66852	-32780
785	636	300	300	66852	-32729
786	638	300	300	66911	-32729
787	638	300	300	66911	-32729
788	638	300	300	66911	-32678
789	637	300	300	66972	-32678
790	638	300	300	66972	-32678
791	637	300	300	66972	-32629
792	638	300	300	66972	-32629
793	636	300	300	67032	-32629
794	637	300	300	67032	-32580
795	638	300	300	67032	-32580
796	638	300	300	67092	-32580
797	636	300	300	67092	-32533
798	638	300	300	67092	-32533
799	638	300	300	67151	-32533
800	638	300	300	67151	-32488
801	637	300	300	67151	-32488
802	638	300	300	67211	-32488
803	638	300	300	67211	-32444
804	638	300	300	67211	-32444
805	636	300	300	67268	-32444
806	638	300	300	67268	-32398
807	638	300	300	67268	-32398
808	637	300	300	67328	-32398
809	637	300	300	67328	-32351
810	638	300	300	67328	-32351
811	637	300	300	67385	-32351
812	638	300	300	67385	-32306
813	637	300	300	67385	-32306
814	637	300	300	67444	-32306
815	638	300	300	67444	-32260
816	637	300	300	67444	-32260
817	638	300	300	67504	-32260
818	638	300	300	67504	-32214
819	638	300	300	67504	-32214
820	637	300	300	67564	-32214
821	637	300	300	67564	-32172
822	638	300	300	67564	-32172
823	637	300	300	67624	-32172
824	638	300	300	67624	-32129
825	638	300	300	67624	-32129
826	638	300	300	67683	-32129
827	638	300	300	67683	-32079
828	638	300	300	67683	-32079
829	638	300	300	67740	-32079
830	636	300	300	67740	-32032
831	638	300	300	67740	-32032
832	637	300	300	67793	-32032
833	637	300	300	67793	-31986
834	638	300	300	67793	-31986
835	638	300	300	67854	-31986
836	638	300	300	67854	-31938
837	637	300	300	67854	-31938
838	637	300	300	67911	-31938
839	638	300	300	67911	-31893
840	637	300	300	67911	-31893
841	637	300	300	67968	-31893
842	635	300	300	67968	-31850
843	637	300	300	67968	-31850
844	637	300	300	68026	-31850
845	637	300	300	68026	-31807
846	638	300	300	68026	-31807
847	638	300	300	68081	-31807
848	638	300	300	68081	-31763
849	637	300	300	68081	-31763
850	637	300	300	68140	-31763
851	637	300	300	68140	-31717
852	637	300	300	68140	-31717
853	637	300	300	68194	-31717
854	637	300	300	68194	-31717
855	636	300	300	68194	-31666
856	637	300	300	68251	-31666
857	637	300	300	68251	-31666
858	637	300	300	68251	-31620
859	638	300	300	68310	-31620
860	638	300	300	68310	-31620
861	638	300	300	68310	-31574
862	638	300	300	68365	-31574
863	638	300	300	68365	-31574
864	637	300	300	68365	-31527
865	637	300	300	68421	-31527
866	636	300	300	68421	-31527
867	636	300	300	68421	-31487
868	638	300	300	68476	-31487
869	638	300	300	68476	-31487
870	637	300	300	68476	-31443
871	637	300	300	68535	-31443
872	637	300	300	68535	-31443
873	638	300	300	68535	-31396
874	636	300	300	68590	-31396
875	638	300	300	68590	-31396
876	638	300	300	68590	-31353
877	638	300	300	68647	-31353
878	635	300	300	68647	-31353
879	641	300	300	68647	-31310
880	642	300	300	68703	-31310
881	641	300	300	68703	-31310
882	642	300	300	68703	-31262
883	642	300	300	68756	-31262
884	642	300	300	68756	-31262
885	642	300	300	68756	-31218
886	641	300	300	68813	-31218
887	642	300	300	68813	-31218
888	642	300	300	68813	-31175
889	641	300	300	68870	-31175
890	642	300	300	68870	-31175
891	642	300	300	68870	-31132
892	642	300	300	68927	-31132
893	640	300	300	68927	-31132
894	642	300	300	68927	-31088
895	642	300	300	68983	-31088
896	642	300	300	68983	-31088
897	642	300	300	68983	-31042
898	642	300	300	68983	-31042
899	642	300	300	69038	-31042
900	641	300	300	69038	-30993
901	641	300	300	69038	-30993
902	641	300	300	69091	-30993
903	641	300	300	69091	-30948
904	642	300	300	69091	-30948
905	642	300	300	69145	-30948
906	642	300	300	69145	-30901
907	640	300	300	69145	-30901
908	641	300	300	69199	-30901
909	642	300	300	69199	-30855
910	641	300	300	69199	-30855
911	642	300	300	69254	-30855
912	641	300	300	69254	-30813
913	642	300	300	69254	-30813
914	641	300	300	69307	-30813
915	642	300	300	69307	-30770
916	642	300	300	69307	-30770
917	642	300	300	69364	-30770
918	642	300	300	69364	-30726
919	642	300	300	69364	-30726
920	641	300	300	69418	-30726
921	642	300	300	69418	-30681
922	641	300	300	69418	-30681
923	642	300	300	69470	-30681
924	641	300	300	69470	-30638
925	642	300	300	69470	-30638
926	641	300	300	69527	-30638
927	641	300	300	69527	-30595
928	642	300	300	69527	-30595
929	642	300	300	69581	-30595
930	642	300	300	69581	-30550
931	642	300	300	69581	-30550
932	642	300	300	69639	-30550
933	642	300	300	69639	-30507
934	642	300	300	69639	-30507
935	642	300	300	69696	-30507
936	641	300	300	69696	-30466
937	641	300	300	69696	-30466
938	641	300	300	69751	-30466
939	641	300	300	69751	-30423
940	641	300	300	69751	-30423
941	641	300	300	69803	-30423
942	642	300	300	69803	-30382
943	642	300	300	69803	-30382
944	642	300	300	69854	-30382
945	642	300	300	69854	-30339
946	642	300	300	69854	-30339
947	642	300	300	69911	-30339
948	642	300	300	69911	-30296
949	642	300	300	69911	-30296
950	641	300	300	69963	-30296
951	641	300	300	69963	-30255
952	641	300	300	69963	-30255
953	642	300	300	70015	-30255
954	642	300	300	70015	-30215
955	641	300	300	70015	-30215
956	642	300	300	70069	-30215
957	642	300	300	70069	-30173
958	641	300	300	70069	-30173
959	641	300	300	70118	-30173
960	642	300	300	70118	-30134
961	642	300	300	70118	-30134
962	642	300	300	70170	-30134
963	642	300	300	70170	-30097
964	641	300	300	70170	-30097
965	642	300	300	70220	-30097
966	641	300	300	70220	-30056
967	641	300	300	70220	-30056
968	642	300	300	70271	-30056
969	642	300	300	70271	-30014
970	642	300	300	70271	-30014
971	641	300	300	70327	-30014
972	640	300	300	70327	-30014
973	641	300	300	70327	-29974
974	641	300	300	70377	-29974
975	642	300	300	70377	-29974
976	642	300	300	70377	-29932
977	640	300	300	70428	-29932
978	641	300	300	70428	-29932
979	641	300	300	70428	-29890
980	642	300	300	70477	-29890
981	642	300	300	70477	-29890
982	642	300	300	70477	-29848
983	641	300	300	70527	-29848
984	642	300	300	70527	-29848
985	642	300	300	70527	-29808
986	642	300	300	70583	-29808
987	642	300	300	70583	-29808
988	642	300	300	70583	-29769
989	641	300	300	70636	-29769
990	642	300	300	70636	-29769
991	642	300	300	70636	-29728
992	641	300	300	70690	-29728
993	642	300	300	70690	-29728
994	642	300	300	70690	-29687
995	642	300	300	70743	-29687
996	641	300	300	70743	-29687
997	641	300	300	70743	-29639
998	642	300	300	70793	-29639
999	642	300	300	70793	-29639
1000	642	300	300	70793	-29593
1001	642	300	300	70845	-29593
1002	641	300	300	70845	-29593
1003	641	300	300	70845	-29549
1004	641	300	300	70899	-29549
1005	640	300	300	70899	-29549
1006	641	300	300	70899	-29505
1007	642	300	300	70953	-29505
1008	641	300	300	70953	-29505
1009	640	300	300	70953	-29462
1010	642	300	300	71005	-29462
1011	641	300	300	71005	-29462
1012	641	300	300	71005	-29423
1013	642	300	300	71057	-29423
1014	641	300	300	71057	-29423
1015	642	300	300	71057	-29383
1016	642	300	300	71057	-29383
1017	642	300	300	71109	-29383
1018	642	300	300	71109	-29343
1019	641	300	300	71109	-29343
1020	642	300	300	71160	-29343
1021	641	300	300	71160	-29305
1022	641	300	300	71160	-29305
1023	641	300	300	71211	-29305
1024	641	300	300	71211	-29265
1025	642	300	300	71211	-29265
1026	642	300	300	71263	-29265
1027	642	300	300	71263	-29220
1028	642	300	300	71263	-29220
1029	642	300	300	71314	-29220
1030	642	300	300	71314	-29181
1031	641	300	300	71314	-29181
1032	642	300	300	71364	-29181
1033	641	300	300	71364	-29143
1034	641	300	300	71364	-29143
1035	641	300	300	71416	-29143
1036	641	300	300	71416	-29104
1037	642	300	300	71416	-29104
1038	641	300	300	71464	-29104
1039	642	300	300	71464	-29065
1040	642	300	300	71464	-29065
1041	641	300	300	71510	-29065
1042	641	300	300	71510	-29023
1043	642	300	300	71510	-29023
1044	641	300	300	71562	-29023
1045	641	300	300	71562	-28979
1046	642	300	300	71562	-28979
1047	640	300	300	71613	-28979
1048	642	300	300	71613	-28934
1049	642	300	300	71613	-28934
1050	642	300	300	71665	-28934
1051	642	300	300	71665	-28891
1052	641	300	300	71665	-28891
1053	642	300	300	71717	-28891
1054	641	300	300	71717	-28847
1055	642	300	300	71717	-28847
1056	641	300	300	71767	-28847
1057	642	300	300	71767	-28803
1058	642	300	300	71767	-28803
1059	641	300	300	71815	-28803
1060	640	300	300	71815	-28763
1061	642	300	300	71815	-28763
1062	641	300	300	71863	-28763
1063	642	300	300	71863	-28723
1064	642	300	300	71863	-28723
1065	642	300	300	71912	-28723
1066	642	300	300	71912	-28679
1067	641	300	300	71912	-28679
1068	641	300	300	71966	-28679
1069	641	300	300	71966	-28636
1070	641	300	300	71966	-28636
1071	642	300	300	72016	-28636
1072	642	300	300	72016	-28592
1073	642	300	300	72016	-28592
1074	640	300	300	72066	-28592
1075	641	300	300	72066	-28550
1076	640	300	300	72066	-28550
1077	642	300	300	72117	-28550
1078	641	300	300	72117	-28508
1079	642	300	300	72117	-28508
1080	640	300	300	72166	-28508
1081	641	300	300	72166	-28466
1082	641	300	300	72166	-28466
1083	642	300	300	72216	-28466
1084	642	300	300	72216	-28427
1085	642	300	300	72216	-28427
1086	641	300	300	72264	-28427
1087	642	300	300	72264	-28389
1088	642	300	300	72264	-28389
1089	641	300	300	72312	-28389
1090	642	300	300	72312	-28389
1091	642	300	300	72312	-28351
1092	642	300	300	72364	-28351
1093	642	300	300	72364	-28351
1094	641	300	300	72364	-28313
1095	641	300	300	72412	-28313
1096	642	300	300	72412	-28313
1097	642	300	300	72412	-28274
1098	642	300	300	72459	-28274
1099	641	300	300	72459	-28274
1100	640	300	300	72459	-28236
1101	642	300	300	72506	-28236
1102	642	300	300	72506	-28236
1103	641	300	300	72506	-28198
1104	642	300	300	72552	-28198
1105	642	300	300	72552	-28198
1106	641	300	300	72552	-28159
1107	641	300	300	72602	-28159
1108	641	300	300	72602	-28159
1109	641	300	300	72602	-28119
1110	642	300	300	72654	-28119
1111	642	300	300	72654	-28119
1112	642	300	300	72654	-28084
1113	641	300	300	72703	-28084
1114	642	300	300	72703	-28084
1115	642	300	300	72703	-28048
1116	641	300	300	72756	-28048
1117	642	300	300	72756	-28048
1118	642	300	300	72756	-28008
1119	642	300	300	72805	-28008
1120	642	300	300	72805	-28008
1121	642	300	300	72805	-27967
1122	642	300	300	72852	-27967
1123	642	300	300	72852	-27967
1124	641	300	300	72852	-27927
1125	642	300	300	72900	-27927
1126	641	300	300	72900	-27927
1127	642	300	300	72900	-27886
1128	641	300	300	72950	-27886
1129	642	300	300	72950	-27886
1130	641	300	300	72950	-27845
1131	641	300	300	72999	-27845
1132	642	300	300	72999	-27845
1133	642	300	300	72999	-27806
1134	642	300	300	72999	-27806
1135	642	300	300	73046	-27806
1136	641	300	300	73046	-27771
1137	641	300	300	73046	-27771
1138	641	300	300	73095	-27771
1139	642	300	300	73095	-27735
1140	641	300	300	73095	-27735
1141	642	300	300	73142	-27735
1142	642	300	300	73142	-27699
1143	642	300	300	73142	-27699
1144	642	300	300	73189	-27699
1145	641	300	300	73189	-27663
1146	642	300	300	73189	-27663
1147	642	300	300	73235	-27663
1148	641	300	300	73235	-27626
1149	641	300	300	73235	-27626
1150	641	300	300	73282	-27626
1151	642	300	300	73282	-27585
1152	642	300	300	73282	-27585
1153	642	300	300	73333	-27585
1154	641	300	300	73333	-27545
1155	641	300	300	73333	-27545
1156	641	300	300	73381	-27545
1157	641	300	300	73381	-27507
1158	642	300	300	73381	-27507
1159	642	300	300	73427	-27507
1160	641	300	300	73427	-27467
1161	642	300	300	73427	-27467
1162	642	300	300	73475	-27467
1163	641	300	300	73475	-27431
1164	642	300	300	73475	-27431
1165	641	300	300	73520	-27431
1166	641	300	300	73520	-27399
1167	642	300	300	73520	-27399
1168	642	300	300	73566	-27399
1169	642	300	300	73566	-27365
1170	642	300	300	73566	-27365
1171	641	300	300	73616	-27365
1172	642	300	300	73616	-27329
1173	641	300	300	73616	-27329
1174	642	300	300	73664	-27329
1175	642	300	300	73664	-27291
1176	642	300	300	73664	-27291
1177	642	300	300	73714	-27291
1178	641	300	300	73714	-27256
1179	641	300	300	73714	-27256
1180	641	300	300	73765	-27256
1181	642	300	300	73765	-27219
1182	642	300	300	73765	-27219
1183	642	300	300	73812	-27219
1184	641	300	300	73812	-27178
1185	640	300	300	73812	-27178
1186	642	300	300	73857	-27178
1187	642	300	300	73857	-27142
1188	642	300	300	73857	-27142
1189	642	300	300	73901	-27142
1190	642	300	300	73901	-27108
1191	642	300	300	73901	-27108
1192	641	300	300	73946	-27108
1193	642	300	300	73946	-27075
1194	641	300	300	73946	-27075
1195	642	300	300	73997	-27075
1196	642	300	300	73997	-27040
1197	642	300	300	73997	-27040
1198	642	300	300	74045	-27040
1199	641	300	300	74045	-27005
1200	643	300	300	74045	-27005
1201	641	300	300	74092	-27005
1202	642	300	300	74092	-26970
1203	642	300	300	74092	-26970
1204	642	300	300	74139	-26970
1205	641	300	300	74139	-26932
1206	642	300	300	74139	-26932
1207	641	300	300	74183	-26932
1208	642	300	300	74183	-26932
1209	642	300	300	74183	-26892
1210	642	300	300	74227	-26892
1211	642	300	300	74227	-26892
1212	641	300	300	74227	-26853
1213	642	300	300	74273	-26853
1214	641	300	300	74273	-26853
1215	642	300	300	74273	-26814
1216	641	300	300	74316	-26814
1217	641	300	300	74316	-26814
1218	641	300	300	74316	-26775
1219	641	300	300	74359	-26775
1220	641	300	300	74359	-26775
1221	642	300	300	74359	-26740
1222	642	300	300	74407	-26740
1223	642	300	300	74407	-26740
1224	641	300	300	74407	-26707
1225	642	300	300	74452	-26707
1226	641	300	300	74452	-26707
1227	642	300	300	74452	-26671
1228	642	300	300	74495	-26671
1229	641	300	300	74495	-26671
1230	641	300	300	74495	-26632
1231	641	300	300	74540	-26632
1232	641	300	300	74540	-26632
1233	642	300	300	74540	-26593
1234	641	300	300	74583	-26593
1235	642	300	300	74583	-26593
1236	642	300	300	74583	-26554
1237	642	300	300	74628	-26554
1238	642	300	300	74628	-26554
1239	642	300	300	74628	-26514
1240	641	300	300	74678	-26514
1241	642	300	300	74678	-26514
1242	641	300	300	74678	-26474
1243	642	300	300	74725	-26474
1244	641	300	300	74725	-26474
1245	642	300	300	74725	-26434
1246	642	300	300	74771	-26434
1247	642	300	300	74771	-26434
1248	641	300	300	74771	-26397
1249	642	300	300	74771	-26397
1250	642	300	300	74817	-26397
1251	642	300	300	74817	-26363
1252	642	300	300	74817	-26363
1253	642	300	300	74860	-26363
1254	641	300	300	74860	-26328
1255	642	300	300	74860	-26328
1256	641	300	300	74901	-26328
1257	642	300	300	74901	-26293
1258	642	300	300	74901	-26293
1259	642	300	300	74945	-26293
1260	642	300	300	74945	-26259
1261	641	300	300	74945	-26259
1262	642	300	300	74991	-26259
1263	642	300	300	74991	-26222
1264	642	300	300	74991	-26222
1265	642	300	300	75037	-26222
1266	642	300	300	75037	-26187
1267	642	300	300	75037	-26187
1268	642	300	300	75081	-26187
1269	642	300	300	75081	-26153
1270	642	300	300	75081	-26153
1271	641	300	300	75126	-26153
1272	642	300	300	75126	-26120
1273	642	300	300	75126	-26120
1274	642	300	300	75172	-26120
1275	642	300	300	75172	-26087
1276	642	300	300	75172	-26087
1277	641	300	300	75214	-26087
1278	641	300	300	75214	-26059
1279	642	300	300	75214	-26059
1280	642	300	300	75256	-26059
1281	642	300	300	75256	-26032
1282	642	300	300	75256	-26032
1283	642	300	300	75300	-26032
1284	642	300	300	75300	-26002
1285	642	300	300	75300	-26002
1286	642	300	300	75343	-26002
1287	641	300	300	75343	-25968
1288	642	300	300	75343	-25968
1289	642	300	300	75387	-25968
1290	642	300	300	75387	-25932
1291	642	300	300	75387	-25932
1292	642	300	300	75430	-25932
1293	642	300	300	75430	-25897
1294	642	300	300	75430	-25897
1295	642	300	300	75473	-25897
1296	641	300	300	75473	-25861
1297	641	300	300	75473	-25861
1298	641	300	300	75517	-25861
1299	642	300	300	75517	-25822
1300	642	300	300	75517	-25822
1301	642	300	300	75557	-25822
1302	642	300	300	75557	-25785
1303	640	300	300	75557	-25785
1304	641	300	300	75594	-25785
1305	642	300	300	75594	-25750
1306	641	300	300	75594	-25750
1307	641	300	300	75638	-25750
1308	642	300	300	75638	-25717
1309	642	300	300	75638	-25717
1310	642	300	300	75683	-25717
1311	642	300	300	75683	-25685
1312	642	300	300	75683	-25685
1313	642	300	300	75726	-25685
1314	642	300	300	75726	-25651
1315	641	300	300	75726	-25651
1316	642	300	300	75771	-25651
1317	641	300	300	75771	-25618
1318	642	300	300	75771	-25618
1319	642	300	300	75818	-25618
1320	642	300	300	75818	-25582
1321	642	300	300	75818	-25582
1322	642	300	300	75861	-25582
1323	641	300	300	75861	-25542
1324	642	300	300	75861	-25542
1325	641	300	300	75902	-25542
1326	641	300	300	75902	-25542
1327	641	300	300	75902	-25504
1328	642	300	300	75943	-25504
1329	642	300	300	75943	-25504
1330	642	300	300	75943	-25468
1331	641	300	300	75983	-25468
1332	642	300	300	75983	-25468
1333	641	300	300	75983	-25432
1334	642	300	300	76027	-25432
1335	642	300	300	76027	-25432
1336	641	300	300	76027	-25398
1337	642	300	300	76075	-25398
1338	641	300	300	76075	-25398
1339	642	300	300	76075	-25368
1340	641	300	300	76117	-25368
1341	641	300	300	76117	-25368
1342	642	300	300	76117	-25341
1343	642	300	300	76159	-25341
1344	641	300	300	76159	-25341
1345	641	300	300	76159	-25310
1346	642	300	300	76204	-25310
1347	642	300	300	76204	-25310
1348	642	300	300	76204	-25278
1349	642	300	300	76241	-25278
1350	642	300	300	76241	-25278
1351	641	300	300	76241	-25244
1352	642	300	300	76280	-25244
1353	642	300	300	76280	-25244
1354	642	300	300	76280	-25214
1355	642	300	300	76323	-25214
1356	641	300	300	76323	-25214
1357	642	300	300	76323	-25181
1358	642	300	300	76363	-25181
1359	641	300	300	76363	-25181
1360	642	300	300	76363	-25146
1361	641	300	300	76403	-25146
1362	641	300	300	76403	-25146
1363	642	300	300	76403	-25109
1364	642	300	300	76403	-25109
1365	642	300	300	76446	-25109
1366	642	300	300	76446	-25077
1367	642	300	300	76446	-25077
1368	641	300	300	76488	-25077
1369	642	300	300	76488	-25047
1370	641	300	300	76488	-25047
1371	642	300	300	76528	-25047
1372	642	300	300	76528	-25018
1373	642	300	300	76528	-25018
1374	642	300	300	76567	-25018
1375	641	300	300	76567	-24988
1376	641	300	300	76567	-24988
1377	645	300	300	76606	-24988
1378	645	300	300	76606	-24956
1379	645	300	300	76606	-24956
1380	645	300	300	76646	-24956
1381	646	300	300	76646	-24922
1382	646	300	300	76646	-24922
1383	646	300	300	76689	-24922
1384	645	300	300	76689	-24888
1385	645	300	300	76689	-24888
1386	646	300	300	76733	-24888
1387	645	300	300	76733	-24850
1388	646	300	300	76733	-24850
1389	646	300	300	76777	-24850
1390	646	300	300	76777	-24814
1391	645	300	300	76777	-24814
1392	645	300	300	76819	-24814
1393	645	300	300	76819	-24778
1394	646	300	300	76819	-24778
1395	646	300	300	76863	-24778
1396	646	300	300	76863	-24740
1397	645	300	300	76863	-24740
1398	646	300	300	76904	-24740
1399	644	300	300	76904	-24707
1400	646	300	300	76904	-24707
1401	646	300	300	76942	-24707
1402	645	300	300	76942	-24677
1403	646	300	300	76942	-24677
1404	646	300	300	76984	-24677
1405	646	300	300	76984	-24645
1406	644	300	300	76984	-24645
1407	644	300	300	77028	-24645
1408	646	300	300	77028	-24608
1409	646	300	300	77028	-24608
1410	646	300	300	77071	-24608
1411	646	300	300	77071	-24571
1412	645	300	300	77071	-24571
1413	644	300	300	77113	-24571
1414	645	300	300	77113	-24534
1415	644	300	300	77113	-24534
1416	646	300	300	77154	-24534
1417	646	300	300	77154	-24498
1418	645	300	300	77154	-24498
1419	646	300	300	77195	-24498
1420	646	300	300	77195	-24462
1421	645	300	300	77195	-24462
1422	646	300	300	77236	-24462
1423	644	300	300	77236	-24426
1424	645	300	300	77236	-24426
1425	646	300	300	77274	-24426
1426	645	300	300	77274	-24391
1427	646	300	300	77274	-24391
1428	645	300	300	77311	-24391
1429	645	300	300	77311	-24360
1430	645	300	300	77311	-24360
1431	646	300	300	77350	-24360
1432	645	300	300	77350	-24332
1433	645	300	300	77350	-24332
1434	645	300	300	77388	-24332
1435	645	300	300	77388	-24304
1436	646	300	300	77388	-24304
1437	646	300	300	77428	-24304
1438	645	300	300	77428	-24275
1439	645	300	300	77428	-24275
1440	646	300	300	77467	-24275
1441	645	300	300	77467	-24244
1442	646	300	300	77467	-24244
1443	646	300	300	77503	-24244
1444	645	300	300	77503	-24244
1445	646	300	300	77503	-24214
1446	645	300	300	77542	-24214
1447	646	300	300	77542	-24214
1448	645	300	300	77542	-24182
1449	645	300	300	77576	-24182
1450	646	300	300	77576	-24182
1451	645	300	300	77576	-24150
1452	646	300	300	77608	-24150
1453	646	300	300	77608	-24150
1454	645	300	300	77608	-24119
1455	646	300	300	77638	-24119
1456	646	300	300	77638	-24119
1457	646	300	300	77638	-24089
1458	645	300	300	77675	-24089
1459	645	300	300	77675	-24089
1460	646	300	300	77675	-24059
1461	645	300	300	77713	-24059
1462	646	300	300	77713	-24059
1463	645	300	300	77713	-24027
1464	645	300	300	77751	-24027
1465	645	300	300	77751	-24027
1466	645	300	300	77751	-24000
1467	645	300	300	77788	-24000
1468	646	300	300	77788	-24000
1469	646	300	300	77788	-23974
1470	646	300	300	77825	-23974
1471	646	300	300	77825	-23974
1472	645	300	300	77825	-23946
1473	645	300	300	77864	-23946
1474	646	300	300	77864	-23946
1475	645	300	300	77864	-23912
1476	645	300	300	77899	-23912
1477	646	300	300	77899	-23912
1478	645	300	300	77899	-23878
1479	645	300	300	77935	-23878
1480	644	300	300	77935	-23878
1481	646	300	300	77935	-23844
1482	646	300	300	77968	-23844
1483	645	300	300	77968	-23844
1484	645	300	300	77968	-23810
1485	646	300	300	78003	-23810
1486	646	300	300	78003	-23810
1487	645	300	300	78003	-23774
1488	645	300	300	78003	-23774
1489	644	300	300	78038	-23774
1490	646	300	300	78038	-23741
1491	646	300	300	78038	-23741
1492	646	300	300	78077	-23741
1493	646	300	300	78077	-23711
1494	646	300	300	78077	-23711
1495	645	300	300	78119	-23711
1496	646	300	300	78119	-23685
1497	646	300	300	78119	-23685
1498	646	300	300	78154	-23685
1499	645	300	300	78154	-23661
1500	646	300	300	78154	-23661
1501	646	300	300	78190	-23661
1502	646	300	300	78190	-23636
1503	645	300	300	78190	-23636
1504	645	300	300	78226	-23636
1505	644	300	300	78226	-23608
1506	646	300	300	78226	-23608
1507	646	300	300	78260	-23608
1508	644	300	300	78260	-23578
1509	646	300	300	78260	-23578
1510	646	300	300	78290	-23578
1511	646	300	300	78290	-23550
1512	644	300	300	78290	-23550
1513	645	300	300	78322	-23550
1514	645	300	300	78322	-23518
1515	646	300	300	78322	-23518
1516	644	300	300	78358	-23518
1517	645	300	300	78358	-23485
1518	645	300	300	78358	-23485
1519	645	300	300	78394	-23485
1520	645	300	300	78394	-23452
1521	646	300	300	78394	-23452
1522	646	300	300	78429	-23452
1523	646	300	300	78429	-23423
1524	646	300	300	78429	-23423
1525	646	300	300	78464	-23423
1526	645	300	300	78464	-23392
1527	646	300	300	78464	-23392
1528	645	300	300	78504	-23392
1529	645	300	300	78504	-23361
1530	646	300	300	78504	-23361
1531	645	300	300	78540	-23361
1532	646	300	300	78540	-23333
1533	645	300	300	78540	-23333
1534	646	300	300	78577	-23333
1535	646	300	300	78577	-23311
1536	646	300	300	78577	-23311
1537	646	300	300	78612	-23311
1538	646	300	300	78612	-23289
1539	645	300	300	78612	-23289
1540	646	300	300	78646	-23289
1541	645	300	300	78646	-23264
1542	646	300	300	78646	-23264
1543	646	300	300	78680	-23264
1544	645	300	300	78680	-23237
1545	646	300	300	78680	-23237
1546	644	300	300	78716	-23237
1547	646	300	300	78716	-23207
1548	645	300	300	78716	-23207
1549	646	300	300	78756	-23207
1550	646	300	300	78756	-23178
1551	645	300	300	78756	-23178
1552	646	300	300	78793	-23178
1553	645	300	300	78793	-23148
1554	644	300	300	78793	-23148
1555	646	300	300	78830	-23148
1556	645	300	300	78830	-23117
1557	646	300	300	78830	-23117
1558	645	300	300	78866	-23117
1559	646	300	300	78866	-23085
1560	646	300	300	78866	-23085
1561	645	300	300	78903	-23085
1562	645	300	300	78903	-23085
1563	645	300	300	78903	-23056
1564	645	300	300	78937	-23056
1565	646	300	300	78937	-23056
1566	646	300	300	78937	-23030
1567	646	300	300	78968	-23030
1568	646	300	300	78968	-23030
1569	645	300	300	78968	-23006
1570	644	300	300	79003	-23006
1571	646	300	300	79003	-23006
1572	645	300	300	79003	-22984
1573	644	300	300	79038	-22984
1574	645	300	300	79038	-22984
1575	645	300	300	79038	-22962
1576	646	300	300	79078	-22962
1577	645	300	300	79078	-22962
1578	645	300	300	79078	-22935
1579	646	300	300	79116	-22935
1580	645	300	300	79116	-22935
1581	645	300	300	79116	-22909
1582	645	300	300	79154	-22909
1583	646	300	300	79154	-22909
1584	646	300	300	79154	-22880
1585	646	300	300	79191	-22880
1586	643	300	300	79191	-22880
1587	646	300	300	79191	-22850
1588	646	300	300	79228	-22850
1589	645	300	300	79228	-22850
1590	645	300	300	79228	-22817
1591	646	300	300	79265	-22817
1592	646	300	300	79265	-22817
1593	646	300	300	79265	-22785
1594	644	300	300	79298	-22785
1595	644	300	300	79298	-22785
1596	645	300	300	79298	-22752
1597	645	300	300	79329	-22752
1598	646	300	300	79329	-22752
1599	646	300	300	79329	-22721
1600	645	300	300	79362	-22721
1601	645	300	300	79362	-22721
1602	644	300	300	79362	-22688
1603	646	300	300	79397	-22688
1604	646	300	300	79397	-22688
1605	646	300	300	79397	-22659
1606	646	300	300	79397	-22659
1607	646	300	300	79433	-22659
1608	645	300	300	79433	-22635
1609	646	300	300	79433	-22635
1610	646	300	300	79472	-22635
1611	644	300	300	79472	-22610
1612	646	300	300	79472	-22610
1613	646	300	300	79508	-22610
1614	646	300	300	79508	-22583
1615	645	300	300	79508	-22583
1616	645	300	300	79542	-22583
1617	646	300	300	79542	-22553
1618	645	300	300	79542	-22553
1619	645	300	300	79577	-22553
1620	645	300	300	79577	-22521
1621	646	300	300	79577	-22521
1622	646	300	300	79612	-22521
1623	645	300	300	79612	-22488
1624	646	300	300	79612	-22488
1625	645	300	300	79645	-22488
1626	646	300	300	79645	-22455
1627	644	300	300	79645	-22455
1628	646	300	300	79675	-22455
1629	646	300	300	79675	-22422
1630	646	300	300	79675	-22422
1631	646	300	300	79706	-22422
1632	646	300	300	79706	-22390
1633	646	300	300	79706	-22390
1634	646	300	300	79741	-22390
1635	645	300	300	79741	-22358
1636	646	300	300	79741	-22358
1637	646	300	300	79779	-22358
1638	645	300	300	79779	-22327
1639	646	300	300	79779	-22327
1640	646	300	300	79814	-22327
1641	646	300	300	79814	-22298
1642	645	300	300	79814	-22298
1643	645	300	300	79853	-22298
1644	645	300	300	79853	-22273
1645	645	300	300	79853	-22273
1646	646	300	300	79892	-22273
1647	646	300	300	79892	-22246
1648	646	300	300	79892	-22246
1649	646	300	300	79928	-22246
1650	646	300	300	79928	-22221
1651	646	300	300	79928	-22221
1652	645	300	300	79962	-22221
1653	645	300	300	79962	-22195
1654	645	300	300	79962	-22195
1655	646	300	300	79992	-22195
1656	646	300	300	79992	-22167
1657	645	300	300	79992	-22167
1658	644	300	300	80023	-22167
1659	646	300	300	80023	-22139
1660	646	300	300	80023	-22139
1661	646	300	300	80055	-22139
1662	645	300	300	80055	-22109
1663	646	300	300	80055	-22109
1664	646	300	300	80087	-22109
1665	645	300	300	80087	-22081
1666	646	300	300	80087	-22081
1667	645	300	300	80122	-22081
1668	646	300	300	80122	-22054
1669	646	300	300	80122	-22054
1670	646	300	300	80162	-22054
1671	646	300	300	80162	-22027
1672	645	300	300	80162	-22027
1673	644	300	300	80196	-22027
1674	646	300	300	80196	-22027
1675	645	300	300	80196	-22001
1676	645	300	300	80231	-22001
1677	646	300	300	80231	-22001
1678	646	300	300	80231	-21976
1679	646	300	300	80265	-21976
1680	644	300	300	80265	-21976
1681	646	300	300	80265	-21956
1682	647	300	300	80298	-21956
1683	646	300	300	80298	-21956
1684	646	300	300	80298	-21937
1685	646	300	300	80326	-21937
1686	645	300	300	80326	-21937
1687	644	300	300	80326	-21914
1688	644	300	300	80356	-21914
1689	644	300	300	80356	-21914
1690	645	300	300	80356	-21889
1691	645	300	300	80385	-21889
1692	645	300	300	80385	-21889
1693	646	300	300	80385	-21858
1694	646	300	300	80420	-21858
1695	646	300	300	80420	-21858
1696	644	300	300	80420	-21828
1697	645	300	300	80452	-21828
1698	645	300	300	80452	-21828
1699	645	300	300	80452	-21798
1700	645	300	300	80486	-21798
1701	645	300	300	80486	-21798
1702	646	300	300	80486	-21769
1703	646	300	300	80521	-21769
1704	645	300	300	80521	-21769
1705	644	300	300	80521	-21739
1706	646	300	300	80558	-21739
1707	646	300	300	80558	-21739
1708	645	300	300	80558	-21709
1709	646	300	300	80591	-21709
1710	646	300	300	80591	-21709
1711	646	300	300	80591	-21682
1712	644	300	300	80623	-21682
1713	643	300	300	80623	-21682
1714	645	300	300	80623	-21655
1715	646	300	300	80653	-21655
1716	646	300	300	80653	-21655
1717	646	300	300	80653	-21631
1718	646	300	300	80682	-21631
1719	646	300	300	80682	-21631
1720	645	300	300	80682	-21610
1721	645	300	300	80710	-21610
1722	645	300	300	80710	-21610
1723	645	300	300	80710	-21588
1724	646	300	300	80710	-21588
1725	646	300	300	80742	-21588
1726	646	300	300	80742	-21565
1727	645	300	300	80742	-21565
1728	645	300	300	80775	-21565
1729	645	300	300	80775	-21540
1730	646	300	300	80775	-21540
1731	646	300	300	80812	-21540
1732	645	300	300	80812	-21516
1733	645	300	300	80812	-21516
1734	646	300	300	80848	-21516
1735	645	300	300	80848	-21487
1736	646	300	300	80848	-21487
1737	644	300	300	80883	-21487
1738	646	300	300	80883	-21456
1739	646	300	300	80883	-21456
1740	646	300	300	80918	-21456
1741	646	300	300	80918	-21424
1742	646	300	300	80918	-21424
1743	644	300	300	80953	-21424
1744	646	300	300	80953	-21394
1745	645	300	300	80953	-21394
1746	646	300	300	80985	-21394
1747	645	300	300	80985	-21367
1748	646	300	300	80985	-21367
1749	646	300	300	81014	-21367
1750	646	300	300	81014	-21340
1751	646	300	300	81014	-21340
1752	645	300	300	81044	-21340
1753	646	300	300	81044	-21314
1754	645	300	300	81044	-21314
1755	645	300	300	81078	-21314
1756	646	300	300	81078	-21290
1757	646	300	300	81078	-21290
1758	646	300	300	81114	-21290
1759	645	300	300	81114	-21271
1760	645	300	300	81114	-21271
1761	646	300	300	81149	-21271
1762	646	300	300	81149	-21254
1763	646	300	300	81149	-21254
1764	646	300	300	81187	-21254
1765	645	300	300	81187	-21234
1766	646	300	300	81187	-21234
1767	646	300	300	81220	-21234
1768	645	300	300	81220	-21212
1769	645	300	300	81220	-21212
1770	646	300	300	81255	-21212
1771	645	300	300	81255	-21187
1772	645	300	300	81255	-21187
1773	646	300	300	81286	-21187
1774	646	300	300	81286	-21162
1775	646	300	300	81286	-21162
1776	644	300	300	81317	-21162
1777	645	300	300	81317	-21138
1778	646	300	300	81317	-21138
1779	646	300	300	81344	-21138
1780	646	300	300	81344	-21114
1781	646	300	300	81344	-21114
1782	645	300	300	81370	-21114
1783	645	300	300	81370	-21091
1784	646	300	300	81370	-21091
1785	645	300	300	81398	-21091
1786	646	300	300	81398	-21065
1787	646	300	300	81398	-21065
1788	645	300	300	81427	-21065
1789	645	300	300	81427	-21039
1790	644	300	300	81427	-21039
1791	645	300	300	81459	-21039
1792	645	300	300	81459	-21013
1793	646	300	300	81459	-21013
1794	646	300	300	81493	-21013
1795	646	300	300	81493	-20991
1796	646	300	300	81493	-20991
1797	646	300	300	81526	-20991
1798	646	300	300	81526	-20991
1799	645	300	300	81526	-20970
1800	646	300	300	81559	-20970
1801	646	300	300	81559	-20970
1802	646	300	300	81559	-20951
1803	646	300	300	81591	-20951
1804	646	300	300	81591	-20951
1805	645	300	300	81591	-20934
1806	646	300	300	81623	-20934
1807	646	300	300	81623	-20934
1808	646	300	300	81623	-20918
1809	646	300	300	81656	-20918
1810	644	300	300	81656	-20918
1811	645	300	300	81656	-20895
1812	645	300	300	81683	-20895
1813	646	300	300	81683	-20895
1814	646	300	300	81683	-20873
1815	646	300	300	81710	-20873
1816	646	300	300	81710	-20873
1817	644	300	300	81710	-20848
1818	646	300	300	81739	-20848
1819	645	300	300	81739	-20848
1820	646	300	300	81739	-20822
1821	646	300	300	81772	-20822
1822	646	300	300	81772	-20822
1823	646	300	300	81772	-20794
1824	645	300	300	81807	-20794
1825	645	300	300	81807	-20794
1826	646	300	300	81807	-20763
1827	645	300	300	81842	-20763
1828	646	300	300	81842	-20763
1829	644	300	300	81842	-20733
1830	646	300	300	81877	-20733
1831	645	300	300	81877	-20733
1832	645	300	300	81877	-20704
1833	646	300	300	81912	-20704
1834	646	300	300	81912	-20704
1835	646	300	300	81912	-20677
1836	645	300	300	81947	-20677
1837	646	300	300	81947	-20677
1838	646	300	300	81947	-20649
1839	645	300	300	81979	-20649
1840	645	300	300	81979	-20649
1841	645	300	300	81979	-20624
1842	646	300	300	81979	-20624
1843	645	300	300	82011	-20624
1844	645	300	300	82011	-20602
1845	646	300	300	82011	-20602
1846	645	300	300	82037	-20602
1847	646	300	300	82037	-20584
1848	645	300	300	82037	-20584
1849	646	300	300	82061	-20584
1850	644	300	300	82061	-20563
1851	645	300	300	82061	-20563
1852	645	300	300	82088	-20563
1853	646	300	300	82088	-20540
1854	646	300	300	82088	-20540
1855	646	300	300	82115	-20540
1856	646	300	300	82115	-20516
1857	645	300	300	82115	-20516
1858	645	300	300	82146	-20516
1859	645	300	300	82146	-20490
1860	645	300	300	82146	-20490
1861	645	300	300	82178	-20490
1862	644	300	300	82178	-20465
1863	646	300	300	82178	-20465
1864	645	300	300	82214	-20465
1865	644	300	300	82214	-20439
1866	646	300	300	82214	-20439
1867	646	300	300	82244	-20439
1868	646	300	300	82244	-20413
1869	645	300	300	82244	-20413
1870	646	300	300	82276	-20413
1871	646	300	300	82276	-20387
1872	646	300	300	82276	-20387
1873	644	300	300	82306	-20387
1874	645	300	300	82306	-20361
1875	645	300	300	82306	-20361
1876	646	300	300	82336	-20361
1877	646	300	300	82336	-20334
1878	646	300	300	82336	-20334
1879	645	300	300	82361	-20334
1880	645	300	300	82361	-20309
1881	646	300	300	82361	-20309
1882	644	300	300	82383	-20309
1883	645	300	300	82383	-20288
1884	645	300	300	82383	-20288
1885	645	300	300	82408	-20288
1886	645	300	300	82408	-20268
1887	644	300	300	82408	-20268
1888	646	300	300	82435	-20268
1889	646	300	300	82435	-20248
1890	646	300	300	82435	-20248
1891	646	300	300	82468	-20248
1892	646	300	300	82468	-20233
1893	645	300	300	82468	-20233
1894	646	300	300	82498	-20233
1895	646	300	300	82498	-20217
1896	646	300	300	82498	-20217
1897	646	300	300	82529	-20217
1898	646	300	300	82529	-20199
1899	644	300	300	82529	-20199
1900	646	300	300	82555	-20199
1901	646	300	300	82555	-20181
1902	646	300	300	82555	-20181
1903	646	300	300	82584	-20181
1904	646	300	300	82584	-20163
1905	645	300	300	82584	-20163
1906	645	300	300	82614	-20163
1907	646	300	300	82614	-20143
1908	646	300	300	82614	-20143
1909	645	300	300	82640	-20143
1910	646	300	300	82640	-20121
1911	645	300	300	82640	-20121
1912	645	300	300	82665	-20121
1913	646	300	300	82665	-20100
1914	645	300	300	82665	-20100
1915	645	300	300	82686	-20100
1916	646	300	300	82686	-20100
1917	646	300	300	82686	-20075
1918	645	300	300	82707	-20075
1919	646	300	300	82707	-20075
1920	645	300	300	82707	-20053
1921	644	300	300	82724	-20053
1922	646	300	300	82724	-20053
1923	646	300	300	82724	-20032
1924	645	300	300	82744	-20032
1925	645	300	300	82744	-20032
1926	646	300	300	82744	-20012
1927	645	300	300	82768	-20012
1928	645	300	300	82768	-20012
1929	645	300	300	82768	-19993
1930	645	300	300	82795	-19993
1931	646	300	300	82795	-19993
1932	645	300	300	82795	-19975
1933	646	300	300	82823	-19975
1934	645	300	300	82823	-19975
1935	645	300	300	82823	-19956
1936	645	300	300	82855	-19956
1937	645	300	300	82855	-19956
1938	646	300	300	82855	-19939
1939	646	300	300	82886	-19939
1940	646	300	300	82886	-19939
1941	644	300	300	82886	-19925
1942	644	300	300	82916	-19925
1943	645	300	300	82916	-19925
1944	646	300	300	82916	-19911
1945	645	300	300	82945	-19911
1946	645	300	300	82945	-19911
1947	645	300	300	82945	-19897
1948	645	300	300	82974	-19897
1949	646	300	300	82974	-19897
1950	645	300	300	82974	-19881
1951	645	300	300	83003	-19881
1952	645	300	300	83003	-19881
1953	646	300	300	83003	-19862
1954	646	300	300	83027	-19862
1955	645	300	300	83027	-19862
1956	645	300	300	83027	-19842
1957	645	300	300	83050	-19842
1958	645	300	300	83050	-19842
1959	646	300	300	83050	-19820
1960	646	300	300	83050	-19820
1961	646	300	300	83071	-19820
1962	645	300	300	83071	-19796
1963	646	300	300	83071	-19796
1964	645	300	300	83098	-19796
1965	644	300	300	83098	-19772
1966	646	300	300	83098	-19772
1967	645	300	300	83127	-19772
1968	646	300	300	83127	-19751
1969	646	300	300	83127	-19751
1970	645	300	300	83158	-19751
1971	645	300	300	83158	-19728
1972	646	300	300	83158	-19728
1973	645	300	300	83189	-19728
1974	646	300	300	83189	-19704
1975	646	300	300	83189	-19704
1976	645	300	300	83220	-19704
1977	645	300	300	83220	-19678
1978	645	300	300	83220	-19678
1979	645	300	300	83250	-19678
1980	645	300	300	83250	-19654
1981	646	300	300	83250	-19654
1982	646	300	300	83278	-19654
1983	645	300	300	83278	-19632
1984	644	300	300	83278	-19632
1985	645	300	300	83308	-19632
1986	644	300	300	83308	-19612
1987	645	300	300	83308	-19612
1988	646	300	300	83335	-19612
1989	646	300	300	83335	-19596
1990	644	300	300	83335	-19596
1991	645	300	300	83361	-19596
1992	645	300	300	83361	-19581
1993	645	300	300	83361	-19581
1994	646	300	300	83383	-19581
1995	645	300	300	83383	-19569
1996	644	300	300	83383	-19569
1997	645	300	300	83404	-19569
1998	645	300	300	83404	-19555
1999	646	300	300	83404	-19555
2000	646	300	300	83424	-19555
2001	645	300	300	83424	-19540
2002	644	300	300	83424	-19540
2003	646	300	300	83447	-19540
2004	645	300	300	83447	-19522
2005	645	300	300	83447	-19522
2006	646	300	300	83472	-19522
2007	645	300	300	83472	-19502
2008	644	300	300	83472	-19502
2009	644	300	300	83499	-19502
2010	646	300	300	83499	-19482
2011	645	300	300	83499	-19482
2012	646	300	300	83527	-19482
2013	646	300	300	83527	-19462
2014	646	300	300	83527	-19462
2015	644	300	300	83557	-19462
2016	646	300	300	83557	-19437
2017	645	300	300	83557	-19437
2018	646	300	300	83587	-19437
2019	646	300	300	83587	-19414
2020	646	300	300	83587	-19414
2021	646	300	300	83617	-19414
2022	646	300	300	83617	-19387
2023	646	300	300	83617	-19387
2024	645	300	300	83645	-19387
2025	646	300	300	83645	-19363
2026	646	300	300	83645	-19363
2027	646	300	300	83675	-19363
2028	646	300	300	83675	-19341
2029	645	300	300	83675	-19341
2030	646	300	300	83703	-19341
2031	646	300	300	83703	-19320
2032	645	300	300	83703	-19320
2033	645	300	300	83726	-19320
2034	645	300	300	83726	-19320
2035	645	300	300	83726	-19300
2036	645	300	300	83749	-19300
2037	645	300	300	83749	-19300
2038	645	300	300	83749	-19281
2039	645	300	300	83773	-19281
2040	646	300	300	83773	-19281
2041	645	300	300	83773	-19262
2042	646	300	300	83799	-19262
2043	645	300	300	83799	-19262
2044	645	300	300	83799	-19245
2045	645	300	300	83829	-19245
2046	648	300	300	83829	-19245
2047	649	300	300	83829	-19232
2048	650	300	300	83861	-19232
2049	650	300	300	83861	-19232
2050	650	300	300	83861	-19222
2051	650	300	300	83891	-19222
2052	649	300	300	83891	-19222
2053	650	300	300	83891	-19211
2054	650	300	300	83922	-19211
2055	650	300	300	83922	-19211
2056	650	300	300	83922	-19198
2057	649	300	300	83954	-19198
2058	650	300	300	83954	-19198
2059	649	300	300	83954	-19183
2060	649	300	300	83985	-19183
2061	649	300	300	83985	-19183
2062	650	300	300	83985	-19167
2063	650	300	300	84014	-19167
2064	650	300	300	84014	-19167
2065	650	300	300	84014	-19148
2066	649	300	300	84042	-19148
2067	650	300	300	84042	-19148
2068	650	300	300	84042	-19131
2069	650	300	300	84068	-19131
2070	650	300	300	84068	-19131
2071	650	300	300	84068	-19112
2072	650	300	300	84089	-19112
2073	650	300	300	84089	-19112
2074	649	300	300	84089	-19093
2075	649	300	300	84113	-19093
2076	650	300	300	84113	-19093
2077	650	300	300	84113	-19075
2078	650	300	300	84113	-19075
2079	649	300	300	84139	-19075
2080	649	300	300	84139	-19055
2081	649	300	300	84139	-19055
2082	649	300	300	84165	-19055
2083	650	300	300	84165	-19035
2084	650	300	300	84165	-19035
2085	648	300	300	84196	-19035
2086	647	300	300	84196	-19013
2087	650	300	300	84196	-19013
2088	650	300	300	84229	-19013
2089	650	300	300	84229	-18990
2090	650	300	300	84229	-18990
2091	648	300	300	84264	-18990
2092	648	300	300	84264	-18969
2093	650	300	300	84264	-18969
2094	649	300	300	84294	-18969
2095	650	300	300	84294	-18951
2096	650	300	300	84294	-18951
2097	648	300	300	84325	-18951
2098	649	300	300	84325	-18934
2099	650	300	300	84325	-18934
2100	650	300	300	84354	-18934
2101	650	300	300	84354	-18918
2102	650	300	300	84354	-18918
2103	650	300	300	84385	-18918
2104	649	300	300	84385	-18905
2105	650	300	300	84385	-18905
2106	649	300	300	84409	-18905
2107	649	300	300	84409	-18894
2108	650	300	300	84409	-18894
2109	650	300	300	84431	-18894
2110	648	300	300	84431	-18885
2111	649	300	300	84431	-18885
2112	648	300	300	84457	-18885
2113	649	300	300	84457	-18874
2114	649	300	300	84457	-18874
2115	650	300	300	84481	-18874
2116	649	300	300	84481	-18858
2117	649	300	300	84481	-18858
2118	650	300	300	84510	-18858
2119	649	300	300	84510	-18841
2120	649	300	300	84510	-18841
2121	650	300	300	84538	-18841
2122	649	300	300	84538	-18824
2123	649	300	300	84538	-18824
2124	650	300	300	84565	-18824
2125	649	300	300	84565	-18804
2126	650	300	300	84565	-18804
2127	649	300	300	84591	-18804
2128	650	300	300	84591	-18784
2129	649	300	300	84591	-18784
2130	649	300	300	84620	-18784
2131	649	300	300	84620	-18762
2132	650	300	300	84620	-18762
2133	650	300	300	84649	-18762
2134	650	300	300	84649	-18740
2135	650	300	300	84649	-18740
2136	649	300	300	84675	-18740
2137	649	300	300	84675	-18716
2138	650	300	300	84675	-18716
2139	649	300	300	84700	-18716
2140	650	300	300	84700	-18693
2141	649	300	300	84700	-18693
2142	649	300	300	84722	-18693
2143	649	300	300	84722	-18670
2144	648	300	300	84722	-18670
2145	649	300	300	84745	-18670
2146	648	300	300	84745	-18648
2147	649	300	300	84745	-18648
2148	649	300	300	84763	-18648
2149	650	300	300	84763	-18626
2150	650	300	300	84763	-18626
2151	649	300	300	84782	-18626
2152	650	300	300	84782	-18626
2153	649	300	300	84782	-18605
2154	649	300	300	84804	-18605
2155	650	300	300	84804	-18605
2156	650	300	300	84804	-18585
2157	648	300	300	84829	-18585
2158	649	300	300	84829	-18585
2159	650	300	300	84829	-18567
2160	649	300	300	84856	-18567
2161	650	300	300	84856	-18567
2162	650	300	300	84856	-18553
2163	650	300	300	84888	-18553
2164	650	300	300	84888	-18553
2165	649	300	300	84888	-18540
2166	650	300	300	84921	-18540
2167	650	300	300	84921	-18540
2168	650	300	300	84921	-18525
2169	649	300	300	84951	-18525
2170	650	300	300	84951	-18525
2171	649	300	300	84951	-18509
2172	650	300	300	84979	-18509
2173	650	300	300	84979	-18509
2174	650	300	300	84979	-18492
2175	649	300	300	85006	-18492
2176	648	300	300	85006	-18492
2177	649	300	300	85006	-18473
2178	649	300	300	85034	-18473
2179	650	300	300	85034	-18473
2180	650	300	300	85034	-18452
2181	650	300	300	85059	-18452
2182	649	300	300	85059	-18452
2183	649	300	300	85059	-18431
2184	649	300	300	85081	-18431
2185	650	300	300	85081	-18431
2186	650	300	300	85081	-18409
2187	649	300	300	85101	-18409
2188	648	300	300	85101	-18409
2189	649	300	300	85101	-18385
2190	649	300	300	85118	-18385
2191	650	300	300	85118	-18385
2192	650	300	300	85118	-18361
2193	650	300	300	85118	-18361
2194	649	300	300	85139	-18361
2195	648	300	300	85139	-18335
2196	650	300	300	85139	-18335
2197	650	300	300	85162	-18335
2198	650	300	300	85162	-18311
2199	650	300	300	85162	-18311
2200	649	300	300	85185	-18311
2201	649	300	300	85185	-18288
2202	650	300	300	85185	-18288
2203	650	300	300	85212	-18288
2204	650	300	300	85212	-18267
2205	650	300	300	85212	-18267
2206	649	300	300	85238	-18267
2207	649	300	300	85238	-18249
2208	650	300	300	85238	-18249
2209	650	300	300	85267	-18249
2210	650	300	300	85267	-18232
2211	650	300	300	85267	-18232
2212	648	300	300	85294	-18232
2213	649	300	300	85294	-18216
2214	650	300	300	85294	-18216
2215	650	300	300	85319	-18216
2216	650	300	300	85319	-18202
2217	650	300	300	85319	-18202
2218	648	300	300	85345	-18202
2219	648	300	300	85345	-18192
2220	649	300	300	85345	-18192
2221	649	300	300	85371	-18192
2222	650	300	300	85371	-18180
2223	650	300	300	85371	-18180
2224	650	300	300	85397	-18180
2225	650	300	300	85397	-18166
2226	650	300	300	85397	-18166
2227	649	300	300	85421	-18166
2228	649	300	300	85421	-18151
2229	649	300	300	85421	-18151
2230	649	300	300	85440	-18151
2231	650	300	300	85440	-18135
2232	649	300	300	85440	-18135
2233	650	300	300	85456	-18135
2234	650	300	300	85456	-18119
2235	650	300	300	85456	-18119
2236	649	300	300	85475	-18119
2237	650	300	300	85475	-18102
2238	650	300	300	85475	-18102
2239	650	300	300	85496	-18102
2240	650	300	300	85496	-18086
2241	650	300	300	85496	-18086
2242	650	300	300	85518	-18086
2243	650	300	300	85518	-18070
2244	649	300	300	85518	-18070
2245	650	300	300	85543	-18070
2246	649	300	300	85543	-18053
2247	650	300	300	85543	-18053
2248	650	300	300	85568	-18053
2249	650	300	300	85568	-18035
2250	649	300	300	85568	-18035
2251	650	300	300	85595	-18035
2252	649	300	300	85595	-18016
2253	649	300	300	85595	-18016
2254	649	300	300	85620	-18016
2255	648	300	300	85620	-17998
2256	650	300	300	85620	-17998
2257	649	300	300	85643	-17998
2258	649	300	300	85643	-17979
2259	649	300	300	85643	-17979
2260	650	300	300	85666	-17979
2261	649	300	300	85666	-17962
2262	650	300	300	85666	-17962
2263	650	300	300	85688	-17962
2264	650	300	300	85688	-17946
2265	650	300	300	85688	-17946
2266	649	300	300	85710	-17946
2267	650	300	300	85710	-17931
2268	650	300	300	85710	-17931
2269	649	300	300	85735	-17931
2270	650	300	300	85735	-17931
2271	649	300	300	85735	-17917
2272	650	300	300	85755	-17917
2273	650	300	300	85755	-17917
2274	649	300	300	85755	-17904
2275	650	300	300	85772	-17904
2276	650	300	300	85772	-17904
2277	650	300	300	85772	-17892
2278	650	300	300	85789	-17892
2279	650	300	300	85789	-17892
2280	648	300	300	85789	-17881
2281	648	300	300	85802	-17881
2282	650	300	300	85802	-17881
2283	649	300	300	85802	-17871
2284	650	300	300	85817	-17871
2285	650	300	300	85817	-17871
2286	650	300	300	85817	-17864
2287	650	300	300	85834	-17864
2288	650	300	300	85834	-17864
2289	649	300	300	85834	-17856
2290	650	300	300	85855	-17856
2291	649	300	300	85855	-17856
2292	650	300	300	85855	-17845
2293	650	300	300	85878	-17845
2294	650	300	300	85878	-17845
2295	649	300	300	85878	-17832
2296	649	300	300	85904	-17832
2297	650	300	300	85904	-17832
2298	649	300	300	85904	-17817
2299	649	300	300	85930	-17817
2300	650	300	300	85930	-17817
2301	649	300	300	85930	-17802
2302	649	300	300	85956	-17802
2303	648	300	300	85956	-17802
2304	650	300	300	85956	-17785
2305	650	300	300	85982	-17785
2306	649	300	300	85982	-17785
2307	650	300	300	85982	-17766
2308	650	300	300	85982	-17766
2309	650	300	300	86008	-17766
2310	649	300	300	86008	-17746
2311	648	300	300	86008	-17746
2312	650	300	300	86034	-17746
2313	649	300	300	86034	-17727
2314	650	300	300	86034	-17727
2315	650	300	300	86059	-17727
2316	650	300	300	86059	-17707
2317	649	300	300	86059	-17707
2318	649	300	300	86082	-17707
2319	650	300	300	86082	-17685
2320	650	300	300	86082	-17685
2321	648	300	300	86104	-17685
2322	649	300	300	86104	-17664
2323	649	300	300	86104	-17664
2324	650	300	300	86123	-17664
2325	650	300	300	86123	-17641
2326	648	300	300	86123	-17641
2327	649	300	300	86140	-17641
2328	648	300	300	86140	-17621
2329	649	300	300	86140	-17621
2330	648	300	300	86158	-17621
2331	649	300	300	86158	-17602
2332	649	300	300	86158	-17602
2333	650	300	300	86180	-17602
2334	650	300	300	86180	-17585
2335	650	300	300	86180	-17585
2336	650	300	300	86201	-17585
2337	650	300	300	86201	-17569
2338	650	300	300	86201	-17569
2339	650	300	300	86224	-17569
2340	650	300	300	86224	-17557
2341	650	300	300	86224	-17557
2342	650	300	300	86252	-17557
2343	649	300	300	86252	-17546
2344	650	300	300	86252	-17546
2345	648	300	300	86280	-17546
2346	649	300	300	86280	-17534
2347	649	300	300	86280	-17534
2348	650	300	300	86309	-17534
2349	650	300	300	86309	-17523
2350	650	300	300	86309	-17523
2351	650	300	300	86334	-17523
2352	649	300	300	86334	-17512
2353	649	300	300	86334	-17512
2354	650	300	300	86359	-17512
2355	649	300	300	86359	-17500
2356	650	300	300	86359	-17500
2357	649	300	300	86385	-17500
2358	650	300	300	86385	-17486
2359	650	300	300	86385	-17486
2360	649	300	300	86410	-17486
2361	650	300	300	86410	-17469
2362	649	300	300	86410	-17469
2363	649	300	300	86434	-17469
2364	650	300	300	86434	-17452
2365	649	300	300	86434	-17452
2366	649	300	300	86452	-17452
2367	650	300	300	86452	-17434
2368	650	300	300	86452	-17434
2369	650	300	300	86467	-17434
2370	649	300	300	86467	-17417
2371	650	300	300	86467	-17417
2372	648	300	300	86485	-17417
2373	649	300	300	86485	-17397
2374	649	300	300	86485	-17397
2375	650	300	300	86502	-17397
2376	650	300	300	86502	-17376
2377	650	300	300	86502	-17376
2378	648	300	300	86520	-17376
2379	650	300	300	86520	-17353
2380	650	300	300	86520	-17353
2381	650	300	300	86542	-17353
2382	648	300	300	86542	-17331
2383	650	300	300	86542	-17331
2384	649	300	300	86565	-17331
2385	649	300	300	86565	-17309
2386	650	300	300	86565	-17309
2387	650	300	300	86588	-17309
2388	650	300	300	86588	-17309
2389	649	300	300	86588	-17289
2390	649	300	300	86613	-17289
2391	649	300	300	86613	-17289
2392	648	300	300	86613	-17270
2393	649	300	300	86637	-17270
2394	650	300	300	86637	-17270
2395	650	300	300	86637	-17252
2396	650	300	300	86661	-17252
2397	650	300	300	86661	-17252
2398	649	300	300	86661	-17235
2399	649	300	300	86687	-17235
2400	650	300	300	86687	-17235
2401	649	300	300	86687	-17219
2402	650	300	300	86712	-17219
2403	650	300	300	86712	-17219
2404	650	300	300	86712	-17208
2405	649	300	300	86736	-17208
2406	648	300	300	86736	-17208
2407	649	300	300	86736	-17197
2408	650	300	300	86759	-17197
2409	649	300	300	86759	-17197
2410	650	300	300	86759	-17187
2411	650	300	300	86778	-17187
2412	650	300	300	86778	-17187
2413	649	300	300	86778	-17182
2414	648	300	300	86796	-17182
2415	649	300	300	86796	-17182
2416	649	300	300	86796	-17176
2417	649	300	300	86811	-17176
2418	650	300	300	86811	-17176
2419	649	300	300	86811	-17171
2420	650	300	300	86826	-17171
2421	650	300	300	86826	-17171
2422	648	300	300	86826	-17166
2423	648	300	300	86845	-17166
2424	650	300	300	86845	-17166
2425	649	300	300	86845	-17160
2426	649	300	300	86865	-17160
2427	650	300	300	86865	-17160
2428	650	300	300	86865	-17153
2429	650	300	300	86889	-17153
2430	650	300	300	86889	-17153
2431	649	300	300	86889	-17144
2432	650	300	300	86889	-17144
2433	649	300	300	86913	-17144
2434	649	300	300	86913	-17133
2435	650	300	300	86913	-17133
2436	649	300	300	86941	-17133
2437	649	300	300	86941	-17123
2438	649	300	300	86941	-17123
2439	650	300	300	86969	-17123
2440	650	300	300	86969	-17111
2441	650	300	300	86969	-17111
2442	649	300	300	86996	-17111
2443	649	300	300	86996	-17098
2444	649	300	300	86996	-17098
2445	650	300	300	87022	-17098
2446	649	300	300	87022	-17086
2447	650	300	300	87022	-17086
2448	649	300	300	87046	-17086
2449	650	300	300	87046	-17072
2450	649	300	300	87046	-17072
2451	648	300	300	87071	-17072
2452	650	300	300	87071	-17057
2453	650	300	300	87071	-17057
2454	650	300	300	87095	-17057
2455	650	300	300	87095	-17043
2456	649	300	300	87095	-17043
2457	648	300	300	87115	-17043
2458	650	300	300	87115	-17030
2459	650	300	300	87115	-17030
2460	650	300	300	87132	-17030
2461	650	300	300	87132	-17014
2462	650	300	300	87132	-17014
2463	650	300	300	87148	-17014
2464	649	300	300	87148	-16998
2465	649	300	300	87148	-16998
2466	649	300	300	87165	-16998
2467	649	300	300	87165	-16981
2468	650	300	300	87165	-16981
2469	650	300	300	87184	-16981
2470	650	300	300	87184	-16963
2471	649	300	300	87184	-16963
2472	649	300	300	87206	-16963
2473	650	300	300	87206	-16945
2474	650	300	300	87206	-16945
2475	649	300	300	87227	-16945
2476	650	300	300	87227	-16928
2477	650	300	300	87227	-16928
2478	650	300	300	87251	-16928
2479	650	300	300	87251	-16915
2480	650	300	300	87251	-16915
2481	649	300	300	87276	-16915
2482	651	300	300	87276	-16902
2483	649	300	300	87276	-16902
2484	649	300	300	87302	-16902
2485	650	300	300	87302	-16890
2486	650	300	300	87302	-16890
2487	649	300	300	87330	-16890
2488	648	300	300	87330	-16879
2489	650	300	300	87330	-16879
2490	649	300	300	87355	-16879
2491	650	300	300	87355	-16870
2492	650	300	300	87355	-16870
2493	650	300	300	87380	-16870
2494	650	300	300	87380	-16862
2495	648	300	300	87380	-16862
2496	648	300	300	87406	-16862
2497	650	300	300	87406	-16854
2498	649	300	300	87406	-16854
2499	650	300	300	87429	-16854
2500	650	300	300	87429	-16847
2501	650	300	300	87429	-16847
2502	649	300	300	87452	-16847
2503	648	300	300	87452	-16840
2504	649	300	300	87452	-16840
2505	650	300	300	87473	-16840
2506	649	300	300	87473	-16840
2507	650	300	300	87473	-16833
2508	650	300	300	87491	-16833
2509	650	300	300	87491	-16833
2510	649	300	300	87491	-16822
2511	650	300	300	87508	-16822
2512	648	300	300	87508	-16822
2513	650	300	300	87508	-16808
2514	650	300	300	87527	-16808
2515	649	300	300	87527	-16808
2516	650	300	300	87527	-16795
2517	650	300	300	87546	-16795
2518	650	300	300	87546	-16795
2519	648	300	300	87546	-16780
2520	649	300	300	87567	-16780
2521	650	300	300	87567	-16780
2522	650	300	300	87567	-16765
2523	649	300	300	87589	-16765
2524	650	300	300	87589	-16765
2525	650	300	300	87589	-16749
2526	649	300	300	87611	-16749
2527	648	300	300	87611	-16749
2528	650	300	300	87611	-16733
2529	650	300	300	87636	-16733
2530	648	300	300	87636	-16733
2531	649	300	300	87636	-16715
2532	649	300	300	87662	-16715
2533	649	300	300	87662	-16715
2534	649	300	300	87662	-16695
2535	649	300	300	87686	-16695
2536	650	300	300	87686	-16695
2537	650	300	300	87686	-16674
2538	650	300	300	87710	-16674
2539	650	300	300	87710	-16674
2540	650	300	300	87710	-16653
2541	650	300	300	87731	-16653
2542	650	300	300	87731	-16653
2543	650	300	300	87731	-16632
2544	649	300	300	87753	-16632
2545	650	300	300	87753	-16632
2546	649	300	300	87753	-16612
2547	649	300	300	87773	-16612
2548	650	300	300	87773	-16612
2549	649	300	300	87773	-16592
2550	650	300	300	87773	-16592
2551	650	300	300	87791	-16592
2552	650	300	300	87791	-16574
2553	650	300	300	87791	-16574
2554	650	300	300	87805	-16574
2555	650	300	300	87805	-16557
2556	649	300	300	87805	-16557
2557	649	300	300	87819	-16557
2558	650	300	300	87819	-16542
2559	650	300	300	87819	-16542
2560	650	300	300	87834	-16542
2561	649	300	300	87834	-16527
2562	650	300	300	87834	-16527
2563	650	300	300	87848	-16527
2564	650	300	300	87848	-16517
2565	650	300	300	87848	-16517
2566	649	300	300	87863	-16517
2567	650	300	300	87863	-16510
2568	650	300	300	87863	-16510
2569	650	300	300	87880	-16510
2570	650	300	300	87880	-16504
2571	650	300	300	87880	-16504
2572	650	300	300	87901	-16504
2573	650	300	300	87901	-16497
2574	649	300	300	87901	-16497
2575	650	300	300	87924	-16497
2576	649	300	300	87924	-16488
2577	650	300	300	87924	-16488
2578	650	300	300	87948	-16488
2579	650	300	300	87948	-16478
2580	650	300	300	87948	-16478
2581	649	300	300	87973	-16478
2582	650	300	300	87973	-16467
2583	649	300	300	87973	-16467
2584	648	300	300	87998	-16467
2585	650	300	300	87998	-16455
2586	650	300	300	87998	-16455
2587	649	300	300	88023	-16455
2588	648	300	300	88023	-16440
2589	650	300	300	88023	-16440
2590	650	300	300	88049	-16440
2591	649	300	300	88049	-16425
2592	650	300	300	88049	-16425
2593	650	300	300	88072	-16425
2594	650	300	300	88072	-16409
2595	649	300	300	88072	-16409
2596	649	300	300	88096	-16409
2597	650	300	300	88096	-16391
2598	650	300	300	88096	-16391
2599	648	300	300	88117	-16391
2600	649	300	300	88117	-16373
2601	650	300	300	88117	-16373
2602	650	300	300	88136	-16373
2603	650	300	300	88136	-16354
2604	649	300	300	88136	-16354
2605	649	300	300	88155	-16354
2606	650	300	300	88155	-16336
2607	649	300	300	88155	-16336
2608	649	300	300	88171	-16336
2609	650	300	300	88171	-16318
2610	649	300	300	88171	-16318
2611	649	300	300	88185	-16318
2612	649	300	300	88185	-16299
2613	649	300	300	88185	-16299
2614	649	300	300	88201	-16299
2615	650	300	300	88201	-16281
2616	650	300	300	88201	-16281
2617	650	300	300	88219	-16281
2618	650	300	300	88219	-16264
2619	649	300	300	88219	-16264
2620	650	300	300	88236	-16264
2621	649	300	300	88236	-16264
2622	649	300	300	88236	-16247
2623	650	300	300	88256	-16247
2624	650	300	300	88256	-16247
2625	649	300	300	88256	-16230
2626	648	300	300	88276	-16230
2627	650	300	300	88276	-16230
2628	649	300	300	88276	-16216
2629	649	300	300	88300	-16216
2630	650	300	300	88300	-16216
2631	650	300	300	88300	-16202
2632	650	300	300	88324	-16202
2633	650	300	300	88324	-16202
2634	650	300	300	88324	-16189
2635	650	300	300	88351	-16189
2636	650	300	300	88351	-16189
2637	649	300	300	88351	-16178
2638	650	300	300	88374	-16178
2639	650	300	300	88374	-16178
2640	649	300	300	88374	-16169
2641	650	300	300	88396	-16169
2642	649	300	300	88396	-16169
2643	649	300	300	88396	-16161
2644	649	300	300	88418	-16161
2645	650	300	300	88418	-16161
2646	650	300	300	88418	-16154
2647	650	300	300	88439	-16154
2648	650	300	300	88439	-16154
2649	650	300	300	88439	-16149
2650	649	300	300	88460	-16149
2651	650	300	300	88460	-16149
2652	650	300	300	88460	-16143
2653	650	300	300	88478	-16143
2654	648	300	300	88478	-16143
2655	650	300	300	88478	-16136
2656	649	300	300	88493	-16136
2657	650	300	300	88493	-16136
2658	649	300	300	88493	-16129
2659	650	300	300	88504	-16129
2660	650	300	300	88504	-16129
2661	650	300	300	88504	-16121
2662	650	300	300	88515	-16121
2663	649	300	300	88515	-16121
2664	650	300	300	88515	-16112
2665	649	300	300	88528	-16112
2666	650	300	300	88528	-16112
2667	650	300	300	88528	-16104
2668	650	300	300	88528	-16104
2669	650	300	300	88541	-16104
2670	649	300	300	88541	-16095
2671	649	300	300	88541	-16095
2672	650	300	300	88556	-16095
2673	649	300	300	88556	-16085
2674	649	300	300	88556	-16085
2675	650	300	300	88572	-16085
2676	650	300	300	88572	-16074
2677	650	300	300	88572	-16074
2678	650	300	300	88592	-16074
2679	650	300	300	88592	-16063
2680	648	300	300	88592	-16063
2681	650	300	300	88612	-16063
2682	650	300	300	88612	-16051
2683	649	300	300	88612	-16051
2684	650	300	300	88633	-16051
2685	650	300	300	88633	-16040
2686	650	300	300	88633	-16040
2687	650	300	300	88652	-16040
2688	650	300	300	88652	-16027
2689	649	300	300	88652	-16027
2690	648	300	300	88674	-16027
2691	649	300	300	88674	-16014
2692	650	300	300	88674	-16014
2693	650	300	300	88693	-16014
2694	649	300	300	88693	-16000
2695	648	300	300	88693	-16000
2696	649	300	300	88713	-16000
2697	650	300	300	88713	-15985
2698	649	300	300	88713	-15985
2699	650	300	300	88733	-15985
2700	650	300	300	88733	-15969
2701	650	300	300	88733	-15969
2702	649	300	300	88754	-15969
2703	649	300	300	88754	-15954
2704	649	300	300	88754	-15954
2705	649	300	300	88772	-15954
2706	650	300	300	88772	-15941
2707	650	300	300	88772	-15941
2708	650	300	300	88791	-15941
2709	649	300	300	88791	-15927
2710	649	300	300	88791	-15927
2711	649	300	300	88808	-15927
2712	649	300	300	88808	-15914
2713	649	300	300	88808	-15914
2714	650	300	300	88822	-15914
2715	650	300	300	88822	-15901
2716	649	300	300	88822	-15901
2717	650	300	300	88835	-15901
2718	648	300	300	88835	-15890
2719	649	300	300	88835	-15890
2720	650	300	300	88847	-15890
2721	649	300	300	88847	-15878
2722	650	300	300	88847	-15878
2723	650	300	300	88856	-15878
2724	650	300	300	88856	-15870
2725	650	300	300	88856	-15870
2726	650	300	300	88864	-15870
2727	649	300	300	88864	-15863
2728	650	300	300	88864	-15863
2729	650	300	300	88877	-15863
2730	650	300	300	88877	-15855
2731	649	300	300	88877	-15855
2732	649	300	300	88891	-15855
2733	650	300	300	88891	-15847
2734	649	300	300	88891	-15847
2735	648	300	300	88908	-15847
2736	648	300	300	88908	-15841
2737	650	300	300	88908	-15841
2738	650	300	300	88928	-15841
2739	650	300	300	88928	-15836
2740	650	300	300	88928	-15836
2741	650	300	300	88948	-15836
2742	650	300	300	88948	-15836
2743	650	300	300	88948	-15832
2744	650	300	300	88972	-15832
2745	650	300	300	88972	-15832
2746	650	300	300	88972	-15828
2747	649	300	300	88997	-15828
2748	649	300	300	88997	-15828
2749	649	300	300	88997	-15824
2750	650	300	300	89019	-15824
2751	649	300	300	89019	-15824
2752	650	300	300	89019	-15821
2753	650	300	300	89043	-15821
2754	650	300	300	89043	-15821
2755	650	300	300	89043	-15819
2756	650	300	300	89066	-15819
2757	649	300	300	89066	-15819
2758	649	300	300	89066	-15815
2759	650	300	300	89086	-15815
2760	650	300	300	89086	-15815
2761	650	300	300	89086	-15810
2762	650	300	300	89108	-15810
2763	650	300	300	89108	-15810
2764	650	300	300	89108	-15804
2765	652	300	300	89129	-15804
2766	654	300	300	89129	-15804
2767	653	300	300	89129	-15796
2768	653	300	300	89149	-15796
2769	653	300	300	89149	-15796
2770	654	300	300	89149	-15787
2771	654	300	300	89165	-15787
2772	653	300	300	89165	-15787
2773	653	300	300	89165	-15777
2774	653	300	300	89177	-15777
2775	654	300	300	89177	-15777
2776	654	300	300	89177	-15766
2777	653	300	300	89188	-15766
2778	653	300	300	89188	-15766
2779	654	300	300	89188	-15755
2780	654	300	300	89201	-15755
2781	654	300	300	89201	-15755
2782	654	300	300	89201	-15742
2783	653	300	300	89217	-15742
2784	653	300	300	89217	-15742
2785	654	300	300	89217	-15726
2786	654	300	300	89217	-15726
2787	653	300	300	89235	-15726
2788	653	300	300	89235	-15710
2789	653	300	300	89235	-15710
2790	653	300	300	89254	-15710
2791	654	300	300	89254	-15694
2792	654	300	300	89254	-15694
2793	653	300	300	89274	-15694
2794	653	300	300	89274	-15676
2795	654	300	300	89274	-15676
2796	653	300	300	89297	-15676
2797	654	300	300	89297	-15659
2798	654	300	300	89297	-15659
2799	654	300	300	89321	-15659
2800	653	300	300	89321	-15641
2801	653	300	300	89321	-15641
2802	654	300	300	89344	-15641
2803	652	300	300	89344	-15624
2804	654	300	300	89344	-15624
2805	654	300	300	89368	-15624
2806	654	300	300	89368	-15605
2807	653	300	300	89368	-15605
2808	654	300	300	89391	-15605
2809	654	300	300	89391	-15587
2810	653	300	300	89391	-15587
2811	654	300	300	89411	-15587
2812	654	300	300	89411	-15571
2813	654	300	300	89411	-15571
2814	653	300	300	89433	-15571
2815	653	300	300	89433	-15555
2816	654	300	300	89433	-15555
2817	654	300	300	89453	-15555
2818	654	300	300	89453	-15540
2819	654	300	300	89453	-15540
2820	654	300	300	89472	-15540
2821	653	300	300	89472	-15527
2822	653	300	300	89472	-15527
2823	653	300	300	89491	-15527
2824	652	300	300	89491	-15515
2825	653	300	300	89491	-15515
2826	654	300	300	89508	-15515
2827	654	300	300	89508	-15504
2828	653	300	300	89508	-15504
2829	653	300	300	89520	-15504
2830	653	300	300	89520	-15495
2831	654	300	300	89520	-15495
2832	654	300	300	89529	-15495
2833	654	300	300	89529	-15486
2834	654	300	300	89529	-15486
2835	653	300	300	89537	-15486
2836	654	300	300	89537	-15481
2837	654	300	300	89537	-15481
2838	654	300	300	89544	-15481
2839	654	300	300	89544	-15476
2840	654	300	300	89544	-15476
2841	653	300	300	89551	-15476
2842	653	300	300	89551	-15469
2843	653	300	300	89551	-15469
2844	653	300	300	89561	-15469
2845	653	300	300	89561	-15462
2846	654	300	300	89561	-15462
2847	653	300	300	89574	-15462
2848	653	300	300	89574	-15453
2849	654	300	300	89574	-15453
2850	654	300	300	89587	-15453
2851	653	300	300	89587	-15443
2852	653	300	300	89587	-15443
2853	653	300	300	89601	-15443
2854	653	300	300	89601	-15432
2855	654	300	300	89601	-15432
2856	654	300	300	89619	-15432
2857	653	300	300	89619	-15420
2858	653	300	300	89619	-15420
2859	653	300	300	89638	-15420
2860	654	300	300	89638	-15420
2861	654	300	300	89638	-15409
2862	653	300	300	89656	-15409
2863	654	300	300	89656	-15409
2864	652	300	300	89656	-15397
2865	653	300	300	89676	-15397
2866	654	300	300	89676	-15397
2867	654	300	300	89676	-15382
2868	654	300	300	89696	-15382
2869	654	300	300	89696	-15382
2870	654	300	300	89696	-15369
2871	653	300	300	89715	-15369
2872	653	300	300	89715	-15369
2873	653	300	300	89715	-15352
2874	653	300	300	89733	-15352
2875	653	300	300	89733	-15352
2876	654	300	300	89733	-15335
2877	653	300	300	89752	-15335
2878	653	300	300	89752	-15335
2879	654	300	300	89752	-15318
2880	653	300	300	89770	-15318
2881	653	300	300	89770	-15318
2882	654	300	300	89770	-15298
2883	654	300	300	89786	-15298
2884	654	300	300	89786	-15298
2885	653	300	300	89786	-15280
2886	653	300	300	89803	-15280
2887	653	300	300	89803	-15280
2888	654	300	300	89803	-15262
2889	653	300	300	89820	-15262
2890	654	300	300	89820	-15262
2891	653	300	300	89820	-15245
2892	653	300	300	89838	-15245
2893	653	300	300	89838	-15245
2894	654	300	300	89838	-15232
2895	654	300	300	89853	-15232
2896	653	300	300	89853	-15232
2897	654	300	300	89853	-15218
2898	653	300	300	89864	-15218
2899	654	300	300	89864	-15218
2900	654	300	300	89864	-15205
2901	654	300	300	89873	-15205
2902	652	300	300	89873	-15205
2903	653	300	300	89873	-15192
2904	654	300	300	89873	-15192
2905	653	300	300	89884	-15192
2906	654	300	300	89884	-15181
2907	654	300	300	89884	-15181
2908	653	300	300	89896	-15181
2909	652	300	300	89896	-15172
2910	654	300	300	89896	-15172
2911	654	300	300	89910	-15172
2912	654	300	300	89910	-15164
2913	654	300	300	89910	-15164
2914	653	300	300	89926	-15164
2915	653	300	300	89926	-15156
2916	654	300	300	89926	-15156
2917	654	300	300	89944	-15156
2918	654	300	300	89944	-15149
2919	654	300	300	89944	-15149
2920	654	300	300	89964	-15149
2921	654	300	300	89964	-15143
2922	654	300	300	89964	-15143
2923	653	300	300	89984	-15143
2924	652	300	300	89984	-15138
2925	653	300	300	89984	-15138
2926	654	300	300	90007	-15138
2927	654	300	300	90007	-15135
2928	652	300	300	90007	-15135
2929	654	300	300	90028	-15135
2930	654	300	300	90028	-15132
2931	654	300	300	90028	-15132
2932	654	300	300	90047	-15132
2933	654	300	300	90047	-15128
2934	653	300	300	90047	-15128
2935	653	300	300	90067	-15128
2936	653	300	300	90067	-15124
2937	653	300	300	90067	-15124
2938	654	300	300	90089	-15124
2939	654	300	300	90089	-15119
2940	653	300	300	90089	-15119
2941	652	300	300	90109	-15119
2942	653	300	300	90109	-15113
2943	654	300	300	90109	-15113
2944	654	300	300	90130	-15113
2945	654	300	300	90130	-15106
2946	653	300	300	90130	-15106
2947	654	300	300	90148	-15106
2948	653	300	300	90148	-15096
2949	653	300	300	90148	-15096
2950	654	300	300	90164	-15096
2951	654	300	300	90164	-15085
2952	653	300	300	90164	-15085
2953	654	300	300	90178	-15085
2954	654	300	300	90178	-15074
2955	654	300	300	90178	-15074
2956	653	300	300	90192	-15074
2957	653	300	300	90192	-15063
2958	654	300	300	90192	-15063
2959	653	300	300	90204	-15063
2960	654	300	300	90204	-15051
2961	652	300	300	90204	-15051
2962	653	300	300	90212	-15051
2963	653	300	300	90212	-15038
2964	653	300	300	90212	-15038
2965	654	300	300	90215	-15038
2966	653	300	300	90215	-15022
2967	654	300	300	90215	-15022
2968	653	300	300	90219	-15022
2969	654	300	300	90219	-15008
2970	654	300	300	90219	-15008
2971	653	300	300	90224	-15008
2972	653	300	300	90224	-14995
2973	654	300	300	90224	-14995
2974	654	300	300	90231	-14995
2975	653	300	300	90231	-14982
2976	653	300	300	90231	-14982
2977	653	300	300	90240	-14982
2978	653	300	300	90240	-14982
2979	654	300	300	90240	-14968
2980	653	300	300	90252	-14968
2981	654	300	300	90252	-14968
2982	653	300	300	90252	-14954
2983	653	300	300	90267	-14954
2984	653	300	300	90267	-14954
2985	654	300	300	90267	-14940
2986	654	300	300	90281	-14940
2987	654	300	300	90281	-14940
2988	653	300	300	90281	-14924
2989	653	300	300	90296	-14924
2990	653	300	300	90296	-14924
2991	654	300	300	90296	-14908
2992	653	300	300	90313	-14908
2993	653	300	300	90313	-14908
2994	653	300	300	90313	-14892
2995	653	300	300	90332	-14892
2996	654	300	300	90332	-14892
2997	654	300	300	90332	-14879
2998	652	300	300	90351	-14879
2999	653	300	300	90351	-14879
3000	654	300	300	90351	-14867
3001	654	300	300	90372	-14867
3002	652	300	300	90372	-14867
3003	653	300	300	90372	-14855
3004	653	300	300	90393	-14855
3005	654	300	300	90393	-14855
3006	654	300	300	90393	-14843
3007	654	300	300	90412	-14843
3008	653	300	300	90412	-14843
3009	652	300	300	90412	-14834
3010	654	300	300	90429	-14834
3011	653	300	300	90429	-14834
3012	654	300	300	90429	-14828
3013	654	300	300	90446	-14828
3014	653	300	300	90446	-14828
3015	652	300	300	90446	-14822
3016	653	300	300	90463	-14822
3017	653	300	300	90463	-14822
3018	654	300	300	90463	-14816
3019	654	300	300	90478	-14816
3020	654	300	300	90478	-14816
3021	653	300	300	90478	-14810
3022	653	300	300	90478	-14810
3023	652	300	300	90493	-14810
3024	653	300	300	90493	-14806
3025	654	300	300	90493	-14806
3026	654	300	300	90507	-14806
3027	654	300	300	90507	-14802
3028	652	300	300	90507	-14802
3029	654	300	300	90520	-14802
3030	653	300	300	90520	-14798
3031	653	300	300	90520	-14798
3032	654	300	300	90531	-14798
3033	653	300	300	90531	-14795
3034	652	300	300	90531	-14795
3035	653	300	300	90540	-14795
3036	654	300	300	90540	-14793
3037	654	300	300	90540	-14793
3038	654	300	300	90545	-14793
3039	653	300	300	90545	-14791
3040	653	300	300	90545	-14791
3041	653	300	300	90549	-14791
3042	654	300	300	90549	-14790
3043	652	300	300	90549	-14790
3044	654	300	300	90554	-14790
3045	654	300	300	90554	-14785
3046	653	300	300	90554	-14785
3047	652	300	300	90559	-14785
3048	653	300	300	90559	-14778
3049	653	300	300	90559	-14778
3050	654	300	300	90562	-14778
3051	654	300	300	90562	-14769
3052	653	300	300	90562	-14769
3053	654	300	300	90565	-14769
3054	654	300	300	90565	-14757
3055	653	300	300	90565	-14757
3056	654	300	300	90570	-14757
3057	652	300	300	90570	-14744
3058	653	300	300	90570	-14744
3059	653	300	300	90576	-14744
3060	652	300	300	90576	-14731
3061	653	300	300	90576	-14731
3062	654	300	300	90584	-14731
3063	654	300	300	90584	-14717
3064	654	300	300	90584	-14717
3065	653	300	300	90595	-14717
3066	654	300	300	90595	-14705
3067	654	300	300	90595	-14705
3068	654	300	300	90606	-14705
3069	654	300	300	90606	-14690
3070	653	300	300	90606	-14690
3071	654	300	300	90618	-14690
3072	653	300	300	90618	-14673
3073	653	300	300	90618	-14673
3074	654	300	300	90633	-14673
3075	654	300	300	90633	-14655
3076	653	300	300	90633	-14655
3077	653	300	300	90648	-14655
3078	653	300	300	90648	-14637
3079	654	300	300	90648	-14637
3080	653	300	300	90665	-14637
3081	654	300	300	90665	-14620
3082	653	300	300	90665	-14620
3083	653	300	300	90680	-14620
3084	653	300	300	90680	-14603
3085	653	300	300	90680	-14603
3086	653	300	300	90695	-14603
3087	653	300	300	90695	-14586
3088	653	300	300	90695	-14586
3089	653	300	300	90713	-14586
3090	654	300	300	90713	-14568
3091	654	300	300	90713	-14568
3092	653	300	300	90730	-14568
3093	654	300	300	90730	-14551
3094	653	300	300	90730	-14551
3095	654	300	300	90746	-14551
3096	654	300	300	90746	-14551
3097	654	300	300	90746	-14536
3098	653	300	300	90765	-14536
3099	653	300	300	90765	-14536
3100	654	300	300	90765	-14523
3101	654	300	300	90783	-14523
3102	652	300	300	90783	-14523
3103	653	300	300	90783	-14509
3104	654	300	300	90801	-14509
3105	653	300	300	90801	-14509
3106	654	300	300	90801	-14497
3107	654	300	300	90815	-14497
3108	653	300	300	90815	-14497
3109	652	300	300	90815	-14486
3110	653	300	300	90830	-14486
3111	653	300	300	90830	-14486
3112	653	300	300	90830	-14477
3113	654	300	300	90843	-14477
3114	653	300	300	90843	-14477
3115	653	300	300	90843	-14470
3116	654	300	300	90853	-14470
3117	652	300	300	90853	-14470
3118	653	300	300	90853	-14464
3119	653	300	300	90861	-14464
3120	653	300	300	90861	-14464
3121	653	300	300	90861	-14459
3122	654	300	300	90867	-14459
3123	653	300	300	90867	-14459
3124	653	300	300	90867	-14453
3125	653	300	300	90872	-14453
3126	653	300	300	90872	-14453
3127	654	300	300	90872	-14447
3128	652	300	300	90878	-14447
3129	653	300	300	90878	-14447
3130	652	300	300	90878	-14439
3131	654	300	300	90883	-14439
3132	654	300	300	90883	-14439
3133	654	300	300	90883	-14430
3134	653	300	300	90889	-14430
3135	653	300	300	90889	-14430
3136	654	300	300	90889	-14420
3137	653	300	300	90893	-14420
3138	654	300	300	90893	-14420
3139	654	300	300	90893	-14408
3140	653	300	300	90893	-14408
3141	653	300	300	90897	-14408
3142	654	300	300	90897	-14394
3143	653	300	300	90897	-14394
3144	654	300	300	90899	-14394
3145	654	300	300	90899	-14378
3146	654	300	300	90899	-14378
3147	653	300	300	90902	-14378
3148	652	300	300	90902	-14364
3149	652	300	300	90902	-14364
3150	654	300	300	90904	-14364
3151	654	300	300	90904	-14349
3152	653	300	300	90904	-14349
3153	654	300	300	90905	-14349
3154	653	300	300	90905	-14333
3155	653	300	300	90905	-14333
3156	653	300	300	90905	-14333
3157	653	300	300	90905	-14316
3158	654	300	300	90905	-14316
3159	654	300	300	90905	-14316
3160	653	300	300	90905	-14299
3161	653	300	300	90905	-14299
3162	653	300	300	90905	-14299
3163	654	300	300	90905	-14282
3164	654	300	300	90905	-14282
3165	654	300	300	90906	-14282
3166	654	300	300	90906	-14264
3167	653	300	300	90906	-14264
3168	653	300	300	90906	-14264
3169	653	300	300	90906	-14246
3170	653	300	300	90906	-14246
3171	653	300	300	90906	-14246
3172	654	300	300	90906	-14227
3173	653	300	300	90906	-14227
3174	653	300	300	90906	-14227
3175	654	300	300	90906	-14209
3176	654	300	300	90906	-14209
3177	653	300	300	90906	-14209
3178	653	300	300	90906	-14192
3179	653	300	300	90906	-14192
3180	653	300	300	90906	-14192
3181	653	300	300	90906	-14177
3182	654	300	300	90906	-14177
3183	653	300	300	90906	-14177
3184	653	300	300	90906	-14163
3185	653	300	300	90906	-14163
3186	653	300	300	90906	-14163
3187	654	300	300	90906	-14151
3188	654	300	300	90906	-14151
3189	653	300	300	90906	-14151
3190	654	300	300	90906	-14140
3191	652	300	300	90906	-14140
3192	653	300	300	90906	-14140
3193	653	300	300	90906	-14131
3194	653	300	300	90906	-14131
3195	653	300	300	90906	-14131
3196	653	300	300	90906	-14124
3197	654	300	300	90906	-14124
3198	654	300	300	90906	-14124
3199	654	300	300	90906	-14117
3200	653	300	300	90906	-14117
3201	653	300	300	90907	-14117
3202	654	300	300	90907	-14110
3203	653	300	300	90907	-14110
3204	653	300	300	90907	-14110
3205	653	300	300	90907	-14105
3206	652	300	300	90907	-14105
3207	653	300	300	90907	-14105
3208	654	300	300	90907	-14101
3209	654	300	300	90907	-14101
3210	653	300	300	90907	-14101
3211	653	300	300	90907	-14096
3212	654	300	300	90907	-14096
3213	653	300	300	90907	-14096
3214	654	300	300	90907	-14091
3215	654	300	300	90907	-14091
3216	653	300	300	90907	-14091
3217	653	300	300	90907	-14091
3218	653	300	300	90907	-14085
3219	654	300	300	90907	-14085
3220	653	300	300	90907	-14085
3221	653	300	300	90907	-14080
3222	654	300	300	90907	-14080
3223	653	300	300	90907	-14080
3224	653	300	300	90907	-14073
3225	654	300	300	90907	-14073
3226	653	300	300	90907	-14073
3227	652	300	300	90907	-14065
3228	654	300	300	90907	-14065
3229	654	300	300	90907	-14065
3230	653	300	300	90907	-14055
3231	653	300	300	90907	-14055
3232	654	300	300	90907	-14055
3233	652	300	300	90907	-14044
3234	654	300	300	90907	-14044
3235	654	300	300	90907	-14044
3236	654	300	300	90907	-14032
3237	652	300	300	90907	-14032
3238	654	300	300	90907	-14032
3239	654	300	300	90907	-14020
3240	653	300	300	90907	-14020
3241	654	300	300	90907	-14020
3242	653	300	300	90907	-14009
3243	653	300	300	90907	-14009
3244	654	300	300	90907	-14009
3245	654	300	300	90907	-13998
3246	653	300	300	90907	-13998
3247	654	300	300	90907	-13998
3248	654	300	300	90907	-13984
3249	653	300	300	90907	-13984
3250	653	300	300	90907	-13984
3251	654	300	300	90907	-13971
3252	653	300	300	90907	-13971
3253	653	300	300	90907	-13971
3254	654	300	300	90907	-13956
3255	653	300	300	90907	-13956
3256	654	300	300	90907	-13956
3257	653	300	300	90907	-13942
3258	653	300	300	90907	-13942
3259	653	300	300	90907	-13942
3260	653	300	300	90907	-13928
3261	653	300	300	90907	-13928
3262	654	300	300	90908	-13928
3263	653	300	300	90908	-13914
3264	654	300	300	90908	-13914
3265	653	300	300	90908	-13914
3266	654	300	300	90908	-13901
3267	653	300	300	90908	-13901
3268	654	300	300	90908	-13901
3269	653	300	300	90908	-13888
3270	653	300	300	90908	-13888
3271	654	300	300	90908	-13888
3272	652	300	300	90908	-13876
3273	653	300	300	90908	-13876
3274	654	300	300	90908	-13876
3275	654	300	300	90908	-13865
3276	653	300	300	90908	-13865
3277	654	300	300	90908	-13865
3278	654	300	300	90908	-13855
3279	654	300	300	90908	-13855
3280	653	300	300	90908	-13855
3281	654	300	300	90908	-13847
3282	653	300	300	90908	-13847
3283	653	300	300	90908	-13847
3284	652	300	300	90908	-13840
3285	654	300	300	90908	-13840
3286	653	300	300	90908	-13840
3287	654	300	300	90908	-13834
3288	654	300	300	90908	-13834
3289	653	300	300	90908	-13834
3290	653	300	300	90908	-13827
3291	654	300	300	90908	-13827
3292	654	300	300	90908	-13827
3293	654	300	300	90908	-13821
3294	653	300	300	90908	-13821
3295	653	300	300	90908	-13821
3296	654	300	300	90908	-13814
3297	654	300	300	90908	-13814
3298	654	300	300	90908	-13814
3299	653	300	300	90908	-13807
3300	653	300	300	90908	-13807
3301	654	300	300	90908	-13807
3302	653	300	300	90908	-13802
3303	654	300	300	90908	-13802
3304	654	300	300	90908	-13802
3305	653	300	300	90908	-13797
3306	654	300	300	90908	-13797
3307	654	300	300	90910	-13797
3308	654	300	300	90910	-13793
3309	653	300	300	90910	-13793
3310	653	300	300	90915	-13793
3311	653	300	300	90915	-13790
3312	654	300	300	90915	-13790
3313	652	300	300	90923	-13790
3314	654	300	300	90923	-13787
3315	654	300	300	90923	-13787
3316	654	300	300	90933	-13787
3317	654	300	300	90933	-13785
3318	652	300	300	90933	-13785
3319	653	300	300	90947	-13785
3320	654	300	300	90947	-13782
3321	653	300	300	90947	-13782
3322	653	300	300	90962	-13782
3323	653	300	300	90962	-13779
3324	654	300	300	90962	-13779
3325	654	300	300	90978	-13779
3326	654	300	300	90978	-13777
3327	654	300	300	90978	-13777
3328	654	300	300	90994	-13777
3329	653	300	300	90994	-13775
3330	654	300	300	90994	-13775
3331	654	300	300	91013	-13775
3332	654	300	300	91013	-13773
3333	654	300	300	91013	-13773
3334	653	300	300	91032	-13773
3335	653	300	300	91032	-13773
3336	654	300	300	91032	-13771
3337	654	300	300	91052	-13771
3338	653	300	300	91052	-13771
3339	654	300	300	91052	-13769
3340	654	300	300	91069	-13769
3341	654	300	300	91069	-13769
3342	653	300	300	91069	-13764
3343	653	300	300	91088	-13764
3344	653	300	300	91088	-13764
3345	654	300	300	91088	-13758
3346	653	300	300	91104	-13758
3347	653	300	300	91104	-13758
3348	654	300	300	91104	-13752
3349	654	300	300	91120	-13752
3350	654	300	300	91120	-13752
3351	652	300	300	91120	-13745
3352	652	300	300	91136	-13745
3353	654	300	300	91136	-13745
3354	654	300	300	91136	-13738
3355	654	300	300	91152	-13738
3356	654	300	300	91152	-13738
3357	653	300	300	91152	-13730
3358	654	300	300	91168	-13730
3359	654	300	300	91168	-13730
3360	653	300	300	91168	-13721
3361	652	300	300	91184	-13721
3362	654	300	300	91184	-13721
3363	653	300	300	91184	-13712
3364	654	300	300	91197	-13712
3365	653	300	300	91197	-13712
3366	654	300	300	91197	-13702
3367	653	300	300	91207	-13702
3368	653	300	300	91207	-13702
3369	654	300	300	91207	-13691
3370	654	300	300	91210	-13691
3371	653	300	300	91210	-13691
3372	654	300	300	91210	-13677
3373	654	300	300	91212	-13677
3374	653	300	300	91212	-13677
3375	653	300	300	91212	-13665
3376	653	300	300	91212	-13665
3377	653	300	300	91213	-13665
3378	653	300	300	91213	-13653
3379	653	300	300	91213	-13653
3380	653	300	300	91214	-13653
3381	654	300	300	91214	-13639
3382	654	300	300	91214	-13639
3383	653	300	300	91215	-13639
3384	653	300	300	91215	-13626
3385	653	300	300	91215	-13626
3386	654	300	300	91217	-13626
3387	654	300	300	91217	-13612
3388	654	300	300	91217	-13612
3389	654	300	300	91218	-13612
3390	653	300	300	91218	-13599
3391	654	300	300	91218	-13599
3392	653	300	300	91220	-13599
3393	654	300	300	91220	-13584
3394	654	300	300	91220	-13584
3395	654	300	300	91222	-13584
3396	654	300	300	91222	-13568
3397	653	300	300	91222	-13568
3398	653	300	300	91224	-13568
3399	654	300	300	91224	-13551
3400	654	300	300	91224	-13551
3401	654	300	300	91227	-13551
3402	654	300	300	91227	-13536
3403	653	300	300	91227	-13536
3404	654	300	300	91231	-13536
3405	653	300	300	91231	-13522
3406	654	300	300	91231	-13522
3407	654	300	300	91236	-13522
3408	654	300	300	91236	-13509
3409	654	300	300	91236	-13509
3410	654	300	300	91242	-13509
3411	654	300	300	91242	-13498
3412	653	300	300	91242	-13498
3413	654	300	300	91249	-13498
3414	654	300	300	91249	-13490
3415	654	300	300	91249	-13490
3416	654	300	300	91255	-13490
3417	654	300	300	91255	-13483
3418	653	300	300	91255	-13483
3419	654	300	300	91261	-13483
3420	654	300	300	91261	-13475
3421	653	300	300	91261	-13475
3422	653	300	300	91266	-13475
3423	652	300	300	91266	-13466
3424	654	300	300	91266	-13466
3425	654	300	300	91274	-13466
3426	653	300	300	91274	-13459
3427	654	300	300	91274	-13459
3428	654	300	300	91285	-13459
3429	654	300	300	91285	-13452
3430	653	300	300	91285	-13452
3431	653	300	300	91297	-13452
3432	654	300	300	91297	-13446
3433	653	300	300	91297	-13446
3434	653	300	300	91310	-13446
3435	654	300	300	91310	-13441
3436	654	300	300	91310	-13441
3437	654	300	300	91324	-13441
3438	653	300	300	91324	-13437
3439	653	300	300	91324	-13437
3440	652	300	300	91340	-13437
3441	653	300	300	91340	-13433
3442	653	300	300	91340	-13433
3443	652	300	300	91358	-13433
3444	654	300	300	91358	-13429
3445	654	300	300	91358	-13429
3446	654	300	300	91376	-13429
3447	653	300	300	91376	-13424
3448	653	300	300	91376	-13424
3449	654	300	300	91394	-13424
3450	654	300	300	91394	-13424
3451	654	300	300	91394	-13417
3452	654	300	300	91413	-13417
3453	654	300	300	91413	-13417
3454	654	300	300	91413	-13409
3455	653	300	300	91433	-13409
3456	652	300	300	91433	-13409
3457	654	300	300	91433	-13399
3458	654	300	300	91450	-13399
3459	652	300	300	91450	-13399
3460	654	300	300	91450	-13389
3461	653	300	300	91467	-13389
3462	653	300	300	91467	-13389
3463	653	300	300	91467	-13378
3464	654	300	300	91484	-13378
3465	653	300	300	91484	-13378
3466	654	300	300	91484	-13367
3467	652	300	300	91500	-13367
3468	653	300	300	91500	-13367
3469	653	300	300	91500	-13357
3470	653	300	300	91514	-13357
3471	653	300	300	91514	-13357
3472	653	300	300	91514	-13345
3473	653	300	300	91529	-13345
3474	654	300	300	91529	-13345
3475	653	300	300	91529	-13332
3476	653	300	300	91543	-13332
3477	654	300	300	91543	-13332
3478	654	300	300	91543	-13323
3479	654	300	300	91555	-13323
3480	652	300	300	91555	-13323
3481	653	300	300	91555	-13311
3482	653	300	300	91563	-13311
3483	653	300	300	91563	-13311
3484	654	300	300	91563	-13298
3485	654	300	300	91569	-13298
3486	653	300	300	91569	-13298
3487	654	300	300	91569	-13283
3488	653	300	300	91574	-13283
3489	653	300	300	91574	-13283
3490	653	300	300	91574	-13269
3491	654	300	300	91579	-13269
3492	654	300	300	91579	-13269
3493	653	300	300	91579	-13251
3494	654	300	300	91579	-13251
3495	652	300	300	91583	-13251
3496	653	300	300	91583	-13236
3497	652	300	300	91583	-13236
3498	654	300	300	91587	-13236
3499	654	300	300	91587	-13219
3500	653	300	300	91587	-13219
3501	653	300	300	91590	-13219
3502	653	300	300	91590	-13205
3503	653	300	300	91590	-13205
3504	654	300	300	91593	-13205
3505	653	300	300	91593	-13193
3506	654	300	300	91593	-13193
3507	654	300	300	91594	-13193
3508	653	300	300	91594	-13181
3509	654	300	300	91594	-13181
3510	652	300	300	91596	-13181
3511	653	300	300	91596	-13168
3512	654	300	300	91596	-13168
3513	654	300	300	91602	-13168
3514	652	300	300	91602	-13156
3515	654	300	300	91602	-13156
3516	654	300	300	91608	-13156
3517	653	300	300	91608	-13146
3518	654	300	300	91608	-13146
3519	654	300	300	91613	-13146
3520	654	300	300	91613	-13138
3521	653	300	300	91613	-13138
3522	653	300	300	91618	-13138
3523	653	300	300	91618	-13128
3524	653	300	300	91618	-13128
3525	652	300	300	91626	-13128
3526	653	300	300	91626	-13120
3527	654	300	300	91626	-13120
3528	654	300	300	91634	-13120
3529	653	300	300	91634	-13112
3530	653	300	300	91634	-13112
3531	654	300	300	91643	-13112
3532	654	300	300	91643	-13105
3533	654	300	300	91643	-13105
3534	654	300	300	91655	-13105
3535	654	300	300	91655	-13099
3536	653	300	300	91655	-13099
3537	654	300	300	91667	-13099
3538	652	300	300	91667	-13094
3539	654	300	300	91667	-13094
3540	654	300	300	91680	-13094
3541	652	300	300	91680	-13090
3542	654	300	300	91680	-13090
3543	654	300	300	91695	-13090
3544	654	300	300	91695	-13089
3545	653	300	300	91695	-13089
3546	654	300	300	91710	-13089
3547	653	300	300	91710	-13087
3548	653	300	300	91710	-13087
3549	654	300	300	91728	-13087
3550	654	300	300	91728	-13086
3551	654	300	300	91728	-13086
3552	654	300	300	91745	-13086
3553	654	300	300	91745	-13085
3554	653	300	300	91745	-13085
3555	652	300	300	91762	-13085
3556	653	300	300	91762	-13083
3557	653	300	300	91762	-13083
3558	652	300	300	91778	-13083
3559	654	300	300	91778	-13081
3560	654	300	300	91778	-13081
3561	654	300	300	91792	-13081
3562	654	300	300	91792	-13079
3563	654	300	300	91792	-13079
3564	654	300	300	91807	-13079
3565	653	300	300	91807	-13079
3566	653	300	300	91807	-13077
3567	654	300	300	91821	-13077
3568	653	300	300	91821	-13077
3569	653	300	300	91821	-13075
3570	653	300	300	91836	-13075
3571	653	300	300	91836	-13075
3572	654	300	300	91836	-13072
3573	653	300	300	91850	-13072
3574	654	300	300	91850	-13072
3575	653	300	300	91850	-13069
3576	652	300	300	91865	-13069
3577	652	300	300	91865	-13069
3578	653	300	300	91865	-13065
3579	653	300	300	91878	-13065
3580	653	300	300	91878	-13065
3581	653	300	300	91878	-13061
3582	654	300	300	91889	-13061
3583	654	300	300	91889	-13061
3584	653	300	300	91889	-13057
3585	653	300	300	91897	-13057
3586	653	300	300	91897	-13057
3587	653	300	300	91897	-13052
3588	654	300	300	91900	-13052
3589	653	300	300	91900	-13052
3590	654	300	300	91900	-13046
3591	652	300	300	91901	-13046
3592	653	300	300	91901	-13046
3593	653	300	300	91901	-13040
3594	653	300	300	91901	-13040
3595	653	300	300	91901	-13040
3596	653	300	300	91901	-13034
3597	653	300	300	91902	-13034
3598	654	300	300	91902	-13034
3599	653	300	300	91902	-13029
3600	654	300	300	91902	-13029
3601	654	300	300	91902	-13029
3602	653	300	300	91902	-13024
3603	653	300	300	91902	-13024
3604	652	300	300	91902	-13024
3605	653	300	300	91902	-13019
3606	653	300	300	91902	-13019
3607	653	300	300	91902	-13019
3608	654	300	300	91902	-13014
3609	653	300	300	91903	-13014
3610	654	300	300	91903	-13014
3611	653	300	300	91903	-13007
3612	653	300	300	91903	-13007
3613	654	300	300	91903	-13007
3614	653	300	300	91903	-12999
3615	653	300	300	91903	-12999
3616	653	300	300	91903	-12999
3617	654	300	300	91903	-12992
3618	654	300	300	91903	-12992
3619	654	300	300	91903	-12992
3620	653	300	300	91903	-12983
3621	653	300	300	91903	-12983
3622	653	300	300	91903	-12983
3623	653	300	300	91903	-12975
3624	653	300	300	91903	-12975
3625	653	300	300	91904	-12975
3626	654	300	300	91904	-12968
3627	653	300	300	91904	-12968
3628	653	300	300	91904	-12968
3629	652	300	300	91904	-12960
3630	654	300	300	91904	-12960
3631	654	300	300	91904	-12960
3632	653	300	300	91904	-12951
3633	654	300	300	91904	-12951
3634	654	300	300	91904	-12951
3635	653	300	300	91904	-12941
3636	653	300	300	91904	-12941
3637	653	300	300	91904	-12941
3638	653	300	300	91904	-12931
3639	653	300	300	91904	-12931
3640	653	300	300	91904	-12931
3641	653	300	300	91904	-12919
3642	654	300	300	91904	-12919
3643	654	300	300	91905	-12919
3644	653	300	300	91905	-12908
3645	653	300	300	91905	-12908
3646	652	300	300	91905	-12908
3647	654	300	300	91905	-12897
3648	653	300	300	91905	-12897
3649	653	300	300	91905	-12897
3650	654	300	300	91905	-12885
3651	654	300	300	91905	-12885
3652	654	300	300	91905	-12885
3653	653	300	300	91905	-12873
3654	653	300	300	91905	-12873
3655	653	300	300	91905	-12873
3656	652	300	300	91905	-12863
3657	653	300	300	91905	-12863
3658	653	300	300	91906	-12863
3659	654	300	300	91906	-12854
3660	654	300	300	91906	-12854
3661	653	300	300	91906	-12854
3662	652	300	300	91906	-12846
3663	653	300	300	91906	-12846
3664	654	300	300	91906	-12846
3665	653	300	300	91906	-12839
3666	653	300	300	91906	-12839
3667	654	300	300	91906	-12839
3668	653	300	300	91906	-12833
3669	654	300	300	91906	-12833
3670	653	300	300	91906	-12833
3671	654	300	300	91906	-12827
3672	652	300	300	91906	-12827
3673	653	300	300	91907	-12827
3674	654	300	300	91907	-12821
3675	654	300	300	91907	-12821
3676	654	300	300	91907	-12821
3677	653	300	300	91907	-12815
3678	653	300	300	91907	-12815
3679	654	300	300	91907	-12815
3680	654	300	300	91907	-12810
3681	654	300	300	91907	-12810
3682	653	300	300	91907	-12810
3683	653	300	300	91907	-12805
3684	654	300	300	91907	-12805
3685	654	300	300	91907	-12805
3686	654	300	300	91907	-12802
3687	652	300	300	91907	-12802
3688	653	300	300	91908	-12802
3689	653	300	300	91908	-12802
3690	653	300	300	91908	-12800
3691	652	300	300	91908	-12800
3692	653	300	300	91908	-12800
3693	653	300	300	91908	-12799
3694	653	300	300	91908	-12799
3695	654	300	300	91908	-12799
3696	653	300	300	91908	-12797
3697	654	300	300	91908	-12797
3698	653	300	300	91908	-12797
3699	654	300	300	91908	-12795
3700	652	300	300	91909	-12795
3701	653	300	300	91909	-12795
3702	654	300	300	91909	-12794
3703	654	300	300	91909	-12794
3704	654	300	300	91909	-12794
3705	653	300	300	91909	-12792
3706	653	300	300	91909	-12792
3707	654	300	300	91909	-12792
3708	653	300	300	91909	-12791
3709	653	300	300	91910	-12791
3710	654	300	300	91910	-12791
3711	654	300	300	91910	-12789
3712	654	300	300	91910	-12789
3713	652	300	300	91910	-12789
3714	653	300	300	91910	-12787
3715	652	300	300	91910	-12787
3716	653	300	300	91910	-12787
3717	654	300	300	91910	-12785
3718	653	300	300	91910	-12785
3719	652	300	300	91910	-12785
3720	652	300	300	91910	-12782
3721	653	300	300	91911	-12782
3722	654	300	300	91911	-12782
3723	654	300	300	91911	-12780
3724	653	300	300	91911	-12780
3725	653	300	300	91911	-12780
3726	653	300	300	91911	-12777
3727	653	300	300	91911	-12777
3728	653	300	300	91911	-12777
3729	654	300	300	91911	-12775
3730	654	300	300	91911	-12775
3731	653	300	300	91912	-12775
3732	653	300	300	91912	-12773
3733	653	300	300	91912	-12773
3734	653	300	300	91912	-12773
3735	652	300	300	91912	-12771
3736	653	300	300	91912	-12771
3737	654	300	300	91912	-12771
3738	654	300	300	91912	-12769
3739	653	300	300	91912	-12769
3740	653	300	300	91913	-12769
3741	654	300	300	91913	-12767
3742	654	300	300	91913	-12767
3743	654	300	300	91913	-12767
3744	654	300	300	91913	-12765
3745	654	300	300	91913	-12765
3746	654	300	300	91913	-12765
3747	653	300	300	91913	-12763
3748	652	300	300	91913	-12763
3749	653	300	300	91914	-12763
3750	654	300	300	91914	-12762
3751	653	300	300	91914	-12762
3752	653	300	300	91914	-12762
3753	654	300	300	91914	-12760
3754	654	300	300	91914	-12760
3755	654	300	300	91915	-12760
3756	652	300	300	91915	-12759
3757	653	300	300	91915	-12759
3758	654	300	300	91915	-12759
3759	653	300	300	91915	-12758
3760	654	300	300	91915	-12758
3761	653	300	300	91916	-12758
3762	654	300	300	91916	-12758
3763	652	300	300	91916	-12758
3764	653	300	300	91917	-12758
3765	654	300	300	91917	-12757
3766	652	300	300	91917	-12757
3767	653	300	300	91917	-12757
3768	654	300	300	91917	-12756
3769	653	300	300	91917	-12756
3770	653	300	300	91918	-12756
3771	653	300	300	91918	-12755
3772	654	300	300	91918	-12755
3773	653	300	300	91919	-12755
3774	653	300	300	91919	-12755
3775	654	300	300	91919	-12755
3776	653	300	300	91920	-12755
3777	654	300	300	91920	-12754
3778	653	300	300	91920	-12754
3779	654	300	300	91921	-12754
3780	653	300	300	91921	-12754
3781	654	300	300	91921	-12754
3782	653	300	300	91923	-12754
3783	653	300	300	91923	-12753
3784	654	300	300	91923	-12753
3785	653	300	300	91924	-12753
3786	653	300	300	91924	-12752
3787	653	300	300	91924	-12752
3788	653	300	300	91926	-12752
3789	653	300	300	91926	-12752
3790	653	300	300	91926	-12752
3791	654	300	300	91929	-12752
3792	654	300	300	91929	-12751
3793	654	300	300	91929	-12751
3794	652	300	300	91931	-12751
3795	652	300	300	91931	-12751
3796	653	300	300	91931	-12751
3797	653	300	300	91934	-12751
3798	653	300	300	91934	-12750
3799	654	300	300	91934	-12750
3800	654	300	300	91937	-12750
3801	654	300	300	91937	-12750
3802	653	300	300	91937	-12750
3803	654	300	300	91941	-12750
3804	653	300	300	91941	-12749
3805	653	300	300	91941	-12749
3806	654	300	300	91944	-12749
3807	653	300	300	91944	-12749
3808	654	300	300	91944	-12749
3809	653	300	300	91948	-12749
3810	653	300	300	91948	-12749
3811	653	300	300	91948	-12748
3812	653	300	300	91951	-12748
3813	654	300	300	91951	-12748
3814	653	300	300	91951	-12748
3815	653	300	300	91954	-12748
3816	653	300	300	91954	-12748
3817	652	300	300	91954	-12747
3818	654	300	300	91957	-12747
3819	653	300	300	91957	-12747
3820	654	300	300	91957	-12747
3821	653	300	300	91960	-12747
3822	653	300	300	91960	-12747
3823	654	300	300	91960	-12746
3824	654	300	300	91963	-12746
3825	654	300	300	91963	-12746
3826	654	300	300	91963	-12746
3827	653	300	300	91966	-12746
3828	652	300	300	91966	-12746
3829	653	300	300	91966	-12745
3830	654	300	300	91970	-12745
3831	654	300	300	91970	-12745
3832	653	300	300	91970	-12745
3833	654	300	300	91975	-12745
3834	654	300	300	91975	-12745
3835	653	300	300	91975	-12744
3836	653	300	300	91983	-12744
3837	654	300	300	91983	-12744
3838	653	300	300	91983	-12744
3839	654	300	300	91992	-12744
3840	653	300	300	91992	-12744
3841	653	300	300	91992	-12743
3842	653	300	300	92003	-12743
3843	654	300	300	92003	-12743
3844	653	300	300	92003	-12743
3845	654	300	300	92015	-12743
3846	654	300	300	92015	-12743
3847	654	300	300	92015	-12742
3848	653	300	300	92015	-12742
3849	652	300	300	92026	-12742
3850	653	300	300	92026	-12741
3851	653	300	300	92026	-12741
3852	654	300	300	92041	-12741
3853	654	300	300	92041	-12737
3854	653	300	300	92041	-12737
3855	653	300	300	92057	-12737
3856	652	300	300	92057	-12731
3857	653	300	300	92057	-12731
3858	654	300	300	92073	-12731
3859	654	300	300	92073	-12723
3860	653	300	300	92073	-12723
3861	653	300	300	92087	-12723
3862	654	300	300	92087	-12713
3863	653	300	300	92087	-12713
3864	654	300	300	92101	-12713
3865	654	300	300	92101	-12704
3866	653	300	300	92101	-12704
3867	654	300	300	92115	-12704
3868	654	300	300	92115	-12694
3869	653	300	300	92115	-12694
3870	654	300	300	92131	-12694
3871	654	300	300	92131	-12684
3872	653	300	300	92131	-12684
3873	653	300	300	92145	-12684
3874	654	300	300	92145	-12675
3875	654	300	300	92145	-12675
3876	654	300	300	92158	-12675
3877	653	300	300	92158	-12665
3878	653	300	300	92158	-12665
3879	653	300	300	92172	-12665
3880	654	300	300	92172	-12654
3881	654	300	300	92172	-12654
3882	654	300	300	92185	-12654
3883	653	300	300	92185	-12642
3884	653	300	300	92185	-12642
3885	654	300	300	92196	-12642
3886	654	300	300	92196	-12629
3887	653	300	300	92196	-12629
3888	653	300	300	92206	-12629
3889	654	300	300	92206	-12617
3890	654	300	300	92206	-12617
3891	653	300	300	92216	-12617
3892	653	300	300	92216	-12605
3893	653	300	300	92216	-12605
3894	653	300	300	92226	-12605
3895	654	300	300	92226	-12590
3896	653	300	300	92226	-12590
3897	654	300	300	92235	-12590
3898	653	300	300	92235	-12575
3899	654	300	300	92235	-12575
3900	654	300	300	92243	-12575
3901	653	300	300	92243	-12561
3902	654	300	300	92243	-12561
3903	653	300	300	92250	-12561
3904	654	300	300	92250	-12547
3905	654	300	300	92250	-12547
3906	653	300	300	92254	-12547
3907	653	300	300	92254	-12533
3908	654	300	300	92254	-12533
3909	653	300	300	92256	-12533
3910	654	300	300	92256	-12519
3911	654	300	300	92256	-12519
3912	654	300	300	92257	-12519
3913	653	300	300	92257	-12505
3914	653	300	300	92257	-12505
3915	654	300	300	92258	-12505
3916	653	300	300	92258	-12493
3917	654	300	300	92258	-12493
3918	654	300	300	92259	-12493
3919	654	300	300	92259	-12481
3920	654	300	300	92259	-12481
3921	653	300	300	92259	-12481
3922	654	300	300	92259	-12468
3923	653	300	300	92259	-12468
3924	654	300	300	92260	-12468
3925	654	300	300	92260	-12468
3926	654	300	300	92260	-12454
3927	653	300	300	92260	-12454
3928	654	300	300	92260	-12454
3929	654	300	300	92260	-12445
3930	652	300	300	92261	-12445
3931	654	300	300	92261	-12445
3932	654	300	300	92261	-12438
3933	654	300	300	92261	-12438
3934	653	300	300	92261	-12438
3935	652	300	300	92261	-12430
3936	653	300	300	92262	-12430
3937	654	300	300	92262	-12430
3938	654	300	300	92262	-12423
3939	654	300	300	92262	-12423
3940	653	300	300	92262	-12423
3941	653	300	300	92262	-12418
3942	653	300	300	92262	-12418
3943	653	300	300	92262	-12418
3944	653	300	300	92262	-12414
3945	654	300	300	92263	-12414
3946	654	300	300	92263	-12414
3947	654	300	300	92263	-12410
3948	653	300	300	92264	-12410
3949	653	300	300	92264	-12410
3950	654	300	300	92264	-12406
3951	652	300	300	92266	-12406
3952	654	300	300	92266	-12406
3953	654	300	300	92266	-12402
3954	654	300	300	92267	-12402
3955	652	300	300	92267	-12402
3956	652	300	300	92267	-12397
3957	654	300	300	92268	-12397
3958	653	300	300	92268	-12397
3959	653	300	300	92268	-12391
3960	654	300	300	92270	-12391
3961	653	300	300	92270	-12391
3962	653	300	300	92270	-12385
3963	654	300	300	92271	-12385
3964	653	300	300	92271	-12385
3965	653	300	300	92271	-12378
3966	654	300	300	92271	-12378
3967	654	300	300	92273	-12378
3968	653	300	300	92273	-12370
3969	653	300	300	92273	-12370
3970	653	300	300	92275	-12370
3971	652	300	300	92275	-12360
3972	654	300	300	92275	-12360
3973	654	300	300	92278	-12360
3974	653	300	300	92278	-12349
3975	654	300	300	92278	-12349
3976	654	300	300	92281	-12349
3977	654	300	300	92281	-12338
3978	653	300	300	92281	-12338
3979	653	300	300	92285	-12338
3980	653	300	300	92285	-12327
3981	653	300	300	92285	-12327
3982	653	300	300	92290	-12327
3983	653	300	300	92290	-12317
3984	653	300	300	92290	-12317
3985	653	300	300	92295	-12317
3986	654	300	300	92295	-12304
3987	654	300	300	92295	-12304
3988	654	300	300	92301	-12304
3989	654	300	300	92301	-12290
3990	654	300	300	92301	-12290
3991	654	300	300	92306	-12290
3992	653	300	300	92306	-12275
3993	653	300	300	92306	-12275
3994	653	300	300	92312	-12275
3995	654	300	300	92312	-12262
3996	653	300	300	92312	-12262
3997	654	300	300	92319	-12262
3998	654	300	300	92319	-12249
3999	653	300	300	92319	-12249
4000	653	0	300	92327	-12249
4001	652	0	300	92327	-12235
4002	654	0	300	92327	-12235
4003	653	0	300	92336	-12235
4004	654	0	300	92336	-12253
4005	654	0	300	92336	-12253
4006	653	0	300	92349	-12253
4007	654	0	300	92349	-12322
4008	654	0	300	92349	-12322
4009	653	0	300	92360	-12322
4010	654	0	300	92360	-12443
4011	652	0	300	92360	-12443
4012	653	0	300	92374	-12443
4013	653	0	300	92374	-12613
4014	654	0	300	92374	-12613
4015	654	0	300	92390	-12613
4016	653	0	300	92390	-12819
4017	654	0	300	92390	-12819
4018	652	0	300	92406	-12819
4019	653	0	300	92406	-13064
4020	654	0	300	92406	-13064
4021	653	0	300	92424	-13064
4022	654	0	300	92424	-13336
4023	654	0	300	92424	-13336
4024	654	0	300	92439	-13336
4025	654	0	300	92439	-13631
4026	653	0	300	92439	-13631
4027	654	0	300	92455	-13631
4028	654	0	300	92455	-13950
4029	654	0	300	92455	-13950
4030	654	0	300	92469	-13950
4031	653	0	300	92469	-14290
4032	654	0	300	92469	-14290
4033	654	0	300	92482	-14290
4034	654	0	300	92482	-14651
4035	654	0	300	92482	-14651
4036	654	0	300	92494	-14651
4037	654	0	300	92494	-15026
4038	654	0	300	92494	-15026
4039	654	0	300	92507	-15026
4040	654	0	300	92507	-15422
4041	653	0	300	92507	-15422
