0	0	0	0	0	0
1	0	0	0	0	0
2	0	0	0	0	0
3	211	0	0	0	0
4	218	0	0	0	0
5	213	0	0	14041	0
6	212	0	0	14041	0
7	216	0	0	14041	0
8	204	0	0	14041	-94160
9	207	0	0	14041	-94160
10	217	600	600	14041	-94160
11	211	600	600	14041	-94160
12	207	600	600	14041	-94160
13	214	600	600	14041	-94160
14	207	600	600	14121	-94067
15	216	600	600	14121	-94067
16	213	600	600	14121	-94067
17	212	600	600	14305	-93857
18	209	600	600	14305	-93857
19	215	600	600	14305	-93857
20	217	600	600	14522	-93611
21	215	600	600	14522	-93611
22	208	600	600	14522	-93611
23	214	600	600	14758	-93348
24	214	600	600	14758	-93348
25	208	600	600	14758	-93348
26	211	600	600	15000	-93077
27	214	600	600	15000	-93077
28	218	600	600	15000	-93077
29	213	600	600	15249	-92807
30	207	600	600	15249	-92807
31	211	600	600	15249	-92807
32	216	600	600	15500	-92534
33	213	600	600	15500	-92534
34	215	600	600	15500	-92534
35	210	600	600	15750	-92259
36	218	600	600	15750	-92259
37	212	600	600	15750	-92259
38	212	600	600	16004	-91987
39	214	600	600	16004	-91987
40	219	600	600	16004	-91987
41	219	600	600	16253	-91711
42	219	600	600	16253	-91711
43	211	600	600	16253	-91711
44	211	600	600	16504	-91438
45	218	600	600	16504	-91438
46	215	600	600	16504	-91438
47	215	600	600	16752	-91438
48	207	600	600	16752	-91167
49	219	600	600	16752	-91167
50	217	600	600	17002	-91167
51	213	600	600	17002	-90892
52	207	600	600	17002	-90892
53	218	600	600	17252	-90892
54	221	600	600	17252	-90619
55	212	600	600	17252	-90619
56	215	600	600	17502	-90619
57	221	600	600	17502	-90343
58	226	600	600	17502	-90343
59	221	600	600	17749	-90343
60	223	600	600	17749	-90068
61	223	600	600	17749	-90068
62	225	600	600	18000	-90068
63	219	600	600	18000	-89795
64	219	600	600	18000	-89795
65	219	600	600	18246	-89795
66	224	600	600	18246	-89521
67	224	600	600	18246	-89521
68	225	600	600	18496	-89521
69	220	600	600	18496	-89247
70	230	600	600	18496	-89247
71	226	600	600	18744	-89247
72	222	600	600	18744	-88973
73	220	600	600	18744	-88973
74	227	600	600	18992	-88973
75	230	600	600	18992	-88700
76	226	600	600	18992	-88700
77	221	600	600	19239	-88700
78	230	600	600	19239	-88426
79	234	600	600	19239	-88426
80	221	600	600	19485	-88426
81	225	600	600	19485	-88150
82	230	600	600	19485	-88150
83	237	600	600	19485	-88150
84	231	600	600	19731	-87878
85	228	600	600	19731	-87878
86	231	600	600	19731	-87878
87	238	600	600	19976	-87603
88	227	600	600	19976	-87603
89	231	600	600	19976	-87603
90	237	600	600	20222	-87330
91	242	600	600	20222	-87330
92	238	600	600	20222	-87330
93	238	600	600	20467	-87058
94	238	600	600	20467	-87058
95	244	600	600	20467	-87058
96	246	600	600	20708	-86784
97	234	600	600	20708	-86784
98	241	600	600	20708	-86784
99	246	600	600	20956	-86510
100	249	600	600	20956	-86510
101	239	600	600	20956	-86510
102	245	600	600	21201	-86233
103	-1287	600	600	21201	-86233
104	259	600	600	21201	-86233
105	259	600	600	21446	-85959
106	258	600	600	21446	-85959
107	261	600	600	21446	-85959
108	263	600	600	21691	-85686
109	264	600	600	21691	-85686
110	263	600	600	21691	-85686
111	266	600	600	21935	-85413
112	267	600	600	21935	-85413
113	267	600	600	21935	-85413
114	266	600	600	22183	-85139
115	270	600	600	22183	-85139
116	270	600	600	22183	-85139
117	270	600	600	22429	-84866
118	273	600	600	22429	-84866
119	275	600	600	22429	-84866
120	274	600	600	22673	-84592
121	276	600	600	22673	-84592
122	278	600	600	22673	-84592
123	278	600	600	22918	-84317
124	278	600	600	22918	-84317
125	282	600	600	22918	-84317
126	283	600	600	23163	-84042
127	283	600	600	23163	-84042
128	286	600	600	23163	-84042
129	286	600	600	23410	-83768
130	286	600	600	23410	-83768
131	290	600	600	23410	-83768
132	290	600	600	23657	-83494
133	290	600	600	23657	-83494
134	293	600	600	23657	-83494
135	294	600	600	23901	-83220
136	295	600	600	23901	-83220
137	298	600	600	23901	-83220
138	299	600	600	24148	-82949
139	299	600	600	24148	-82949
140	302	600	600	24148	-82949
141	302	600	600	24392	-82672
142	305	600	600	24392	-82672
143	305	600	600	24392	-82672
144	305	600	600	24640	-82398
145	309	600	600	24640	-82398
146	309	600	600	24640	-82398
147	309	600	600	24885	-82121
148	313	600	600	24885	-82121
149	313	600	600	24885	-82121
150	313	600	600	25133	-81846
151	317	600	600	25133	-81846
152	317	600	600	25133	-81846
153	319	600	600	25379	-81572
154	322	600	600	25379	-81572
155	322	600	600	25379	-81572
156	326	600	600	25626	-81300
157	326	600	600	25626	-81300
158	327	600	600	25626	-81300
159	330	600	600	25875	-81026
160	331	600	600	25875	-81026
161	333	600	600	25875	-81026
162	334	600	600	26123	-80752
163	337	600	600	26123	-80752
164	338	600	600	26123	-80752
165	339	600	600	26373	-80752
166	342	600	600	26373	-80479
167	343	600	600	26373	-80479
168	346	600	600	26621	-80479
169	347	600	600	26621	-80203
170	350	600	600	26621	-80203
171	350	600	600	26868	-80203
172	353	600	600	26868	-79928
173	354	600	600	26868	-79928
174	356	600	600	27121	-79928
175	357	600	600	27121	-79655
176	359	600	600	27121	-79655
177	361	600	600	27372	-79655
178	363	600	600	27372	-79381
179	365	600	600	27372	-79381
180	366	600	600	27626	-79381
181	369	600	600	27626	-79107
182	370	600	600	27626	-79107
183	372	600	600	27879	-79107
184	374	600	600	27879	-78836
185	377	600	600	27879	-78836
186	378	600	600	28130	-78836
187	381	600	600	28130	-78559
188	382	600	600	28130	-78559
189	385	600	600	28384	-78559
190	386	600	600	28384	-78286
191	389	600	600	28384	-78286
192	389	600	600	28638	-78286
193	392	600	600	28638	-78009
194	393	600	600	28638	-78009
195	397	600	600	28888	-78009
196	397	600	600	28888	-77734
197	400	600	600	28888	-77734
198	402	600	600	29146	-77734
199	404	600	600	29146	-77461
200	405	600	600	29146	-77461
201	408	600	600	29146	-77461
202	410	600	600	29404	-77189
203	412	600	600	29404	-77189
204	414	600	600	29404	-77189
205	417	600	600	29665	-76914
206	416	600	600	29665	-76914
207	420	600	600	29665	-76914
208	421	600	600	29927	-76640
209	424	600	600	29927	-76640
210	425	600	600	29927	-76640
211	428	600	600	30189	-76367
212	430	600	600	30189	-76367
213	432	600	600	30189	-76367
214	433	600	600	30455	-76091
215	434	600	600	30455	-76091
216	438	600	600	30455	-76091
217	438	600	600	30719	-75815
218	441	600	600	30719	-75815
219	441	600	600	30719	-75815
220	445	600	600	30986	-75543
221	445	600	600	30986	-75543
222	448	600	600	30986	-75543
223	450	600	600	31255	-75269
224	451	600	600	31255	-75269
225	453	600	600	31255	-75269
226	453	600	600	31523	-74995
227	457	600	600	31523	-74995
228	457	600	600	31523	-74995
229	460	600	600	31794	-74723
230	461	600	600	31794	-74723
231	462	600	600	31794	-74723
232	464	600	600	32062	-74446
233	466	600	600	32062	-74446
234	468	600	600	32062	-74446
235	470	600	600	32333	-74174
236	470	600	600	32333	-74174
237	473	600	600	32333	-74174
238	472	600	600	32602	-73896
239	476	600	600	32602	-73896
240	477	600	600	32602	-73896
241	478	600	600	32874	-73622
242	481	600	600	32874	-73622
243	481	600	600	32874	-73622
244	483	600	600	33142	-73348
245	485	600	600	33142	-73348
246	485	600	600	33142	-73348
247	488	600	600	33412	-73076
248	488	600	600	33412	-73076
249	489	600	600	33412	-73076
250	493	600	600	33685	-72801
251	493	600	600	33685	-72801
252	493	600	600	33685	-72801
253	496	600	600	33957	-72527
254	497	600	600	33957	-72527
255	497	600	600	33957	-72527
256	501	600	600	34226	-72254
257	501	600	600	34226	-72254
258	501	600	600	34226	-72254
259	502	600	600	34498	-71977
260	505	600	600	34498	-71977
261	505	600	600	34498	-71977
262	506	600	600	34768	-71702
263	509	600	600	34768	-71702
264	509	600	600	34768	-71702
265	509	600	600	35037	-71430
266	511	600	600	35037	-71430
267	513	600	600	35037	-71430
268	513	600	600	35311	-71155
269	515	600	600	35311	-71155
270	516	600	600	35311	-71155
271	517	600	600	35581	-70880
272	517	600	600	35581	-70880
273	519	600	600	35581	-70880
274	521	600	600	35853	-70608
275	520	600	600	35853	-70608
276	521	600	600	35853	-70608
277	523	600	600	36125	-70332
278	525	600	600	36125	-70332
279	525	600	600	36125	-70332
280	525	600	600	36394	-70058
281	526	600	600	36394	-70058
282	529	600	600	36394	-70058
283	529	600	600	36663	-70058
284	529	600	600	36663	-69782
285	529	600	600	36663	-69782
286	533	600	600	36932	-69782
287	533	600	600	36932	-69510
288	533	600	600	36932	-69510
289	533	600	600	37201	-69510
290	535	600	600	37201	-69233
291	537	600	600	37201	-69233
292	536	600	600	37471	-69233
293	537	600	600	37471	-68961
294	537	600	600	37471	-68961
295	538	600	600	37739	-68961
296	541	600	600	37739	-68688
297	540	600	600	37739	-68688
298	541	600	600	38009	-68688
299	541	600	600	38009	-68414
300	541	600	600	38009	-68414
301	544	600	600	38275	-68414
302	545	600	600	38275	-68139
303	545	600	600	38275	-68139
304	545	600	600	38546	-68139
305	545	600	600	38546	-67863
306	547	600	600	38546	-67863
307	549	600	600	38813	-67863
308	549	600	600	38813	-67589
309	549	600	600	38813	-67589
310	549	600	600	39078	-67589
311	549	600	600	39078	-67316
312	551	600	600	39078	-67316
313	553	600	600	39344	-67316
314	553	600	600	39344	-67041
315	553	600	600	39344	-67041
316	553	600	600	39611	-67041
317	553	600	600	39611	-66768
318	556	600	600	39611	-66768
319	557	600	600	39611	-66768
320	557	600	600	39877	-66494
321	557	600	600	39877	-66494
322	557	600	600	39877	-66494
323	557	600	600	40142	-66219
324	560	600	600	40142	-66219
325	561	600	600	40142	-66219
326	561	600	600	40404	-65946
327	561	600	600	40404	-65946
328	561	600	600	40404	-65946
329	561	600	600	40669	-65670
330	564	600	600	40669	-65670
331	565	600	600	40669	-65670
332	565	600	600	40931	-65398
333	565	600	600	40931	-65398
334	565	600	600	40931	-65398
335	565	600	600	41190	-65121
336	569	600	600	41190	-65121
337	569	600	600	41190	-65121
338	569	600	600	41454	-64849
339	569	600	600	41454	-64849
340	569	600	600	41454	-64849
341	568	600	600	41714	-64575
342	572	600	600	41714	-64575
343	573	600	600	41714	-64575
344	573	600	600	41976	-64301
345	573	600	600	41976	-64301
346	573	600	600	41976	-64301
347	575	600	600	42235	-64027
348	577	600	600	42235	-64027
349	576	600	600	42235	-64027
350	577	600	600	42493	-63751
351	578	600	600	42493	-63751
352	577	600	600	42493	-63751
353	580	600	600	42751	-63476
354	581	600	600	42751	-63476
355	581	600	600	42751	-63476
356	581	600	600	43005	-63203
357	581	600	600	43005	-63203
358	584	600	600	43005	-63203
359	585	600	600	43257	-62928
360	585	600	600	43257	-62928
361	584	600	600	43257	-62928
362	584	600	600	43515	-62655
363	586	600	600	43515	-62655
364	589	600	600	43515	-62655
365	588	600	600	43772	-62380
366	589	600	600	43772	-62380
367	589	600	600	43772	-62380
368	593	600	600	44031	-62106
369	592	600	600	44031	-62106
370	594	600	600	44031	-62106
371	594	600	600	44289	-61833
372	595	600	600	44289	-61833
373	596	600	600	44289	-61833
374	597	600	600	44544	-61557
375	597	600	600	44544	-61557
376	600	600	600	44544	-61557
377	601	600	600	44801	-61285
378	601	600	600	44801	-61285
379	602	600	600	44801	-61285
380	604	600	600	45055	-61009
381	606	600	600	45055	-61009
382	604	600	600	45055	-61009
383	605	600	600	45307	-60736
384	609	600	600	45307	-60736
385	610	600	600	45307	-60736
386	609	600	600	45565	-60464
387	611	600	600	45565	-60464
388	613	600	600	45565	-60464
389	614	600	600	45820	-60189
390	614	600	600	45820	-60189
391	617	600	600	45820	-60189
392	617	600	600	46077	-59915
393	617	600	600	46077	-59915
394	621	600	600	46077	-59915
395	621	600	600	46334	-59638
396	621	600	600	46334	-59638
397	624	600	600	46334	-59638
398	625	600	600	46590	-59364
399	625	600	600	46590	-59364
400	629	600	600	46590	-59364
401	629	600	600	46849	-59364
402	630	600	600	46849	-59091
403	632	600	600	46849	-59091
404	634	600	600	47106	-59091
405	633	600	600	47106	-58817
406	637	600	600	47106	-58817
407	637	600	600	47361	-58817
408	638	600	600	47361	-58544
409	641	600	600	47361	-58544
410	642	600	600	47623	-58544
411	642	600	600	47623	-58269
412	646	600	600	47623	-58269
413	645	600	600	47882	-58269
414	646	600	600	47882	-57997
415	649	600	600	47882	-57997
416	649	600	600	48143	-57997
417	651	600	600	48143	-57723
418	653	600	600	48143	-57723
419	653	600	600	48405	-57723
420	655	600	600	48405	-57448
421	657	600	600	48405	-57448
422	657	600	600	48666	-57448
423	660	600	600	48666	-57176
424	661	600	600	48666	-57176
425	662	600	600	48928	-57176
426	665	600	600	48928	-56900
427	666	600	600	48928	-56900
428	666	600	600	49189	-56900
429	669	600	600	49189	-56627
430	670	600	600	49189	-56627
431	670	600	600	49451	-56627
432	674	600	600	49451	-56356
433	673	600	600	49451	-56356
434	675	600	600	49715	-56356
435	677	600	600	49715	-56082
436	678	600	600	49715	-56082
437	680	600	600	49715	-56082
438	681	600	600	49978	-55809
439	682	600	600	49978	-55809
440	685	600	600	49978	-55809
441	684	600	600	50243	-55533
442	686	600	600	50243	-55533
443	689	600	600	50243	-55533
444	690	600	600	50506	-55259
445	691	600	600	50506	-55259
446	695	600	600	50506	-55259
447	693	600	600	50773	-54988
448	696	600	600	50773	-54988
449	697	600	600	50773	-54988
450	698	600	600	51037	-54715
451	699	600	600	51037	-54715
452	703	600	600	51037	-54715
453	702	600	600	51303	-54444
454	704	600	600	51303	-54444
455	706	600	600	51303	-54444
456	707	600	600	51568	-54172
457	706	600	600	51568	-54172
458	710	600	600	51568	-54172
459	710	600	600	51833	-53901
460	711	600	600	51833	-53901
461	713	600	600	51833	-53901
462	714	600	600	52101	-53631
463	715	600	600	52101	-53631
464	714	600	600	52101	-53631
465	717	600	600	52368	-53359
466	718	600	600	52368	-53359
467	718	600	600	52368	-53359
468	718	600	600	52633	-53091
469	719	600	600	52633	-53091
470	719	600	600	52633	-53091
471	722	600	600	52900	-52819
472	722	600	600	52900	-52819
473	723	600	600	52900	-52819
474	722	600	600	53163	-52553
475	721	600	600	53163	-52553
476	726	600	600	53163	-52553
477	726	600	600	53423	-52287
478	727	600	600	53423	-52287
479	727	600	600	53423	-52287
480	727	600	600	53686	-52021
481	726	600	600	53686	-52021
482	727	600	600	53686	-52021
483	726	600	600	53946	-51757
484	726	600	600	53946	-51757
485	729	600	600	53946	-51757
486	730	600	600	54204	-51492
487	731	600	600	54204	-51492
488	730	600	600	54204	-51492
489	730	600	600	54459	-51233
490	730	600	600	54459	-51233
491	731	600	600	54459	-51233
492	731	600	600	54712	-50977
493	729	600	600	54712	-50977
494	730	600	600	54712	-50977
495	730	600	600	54966	-50720
496	731	600	600	54966	-50720
497	729	600	600	54966	-50720
498	730	600	600	55217	-50467
499	731	600	600	55217	-50467
500	731	600	600	55217	-50467
501	728	600	600	55467	-50217
502	730	600	600	55467	-50217
503	731	600	600	55467	-50217
504	731	600	600	55718	-49968
505	729	600	600	55718	-49968
506	730	600	600	55718	-49968
507	731	600	600	55967	-49725
508	731	600	600	55967	-49725
509	729	600	600	55967	-49725
510	726	600	600	56215	-49482
511	726	600	600	56215	-49482
512	726	600	600	56215	-49482
513	727	600	600	56463	-49241
514	726	600	600	56463	-49241
515	727	600	600	56463	-49241
516	726	600	600	56709	-49006
517	727	600	600	56709	-49006
518	725	600	600	56709	-49006
519	722	600	600	56958	-49006
520	722	600	600	56958	-48770
521	722	600	600	56958	-48770
522	722	600	600	57202	-48770
523	723	600	600	57202	-48538
524	722	600	600	57202	-48538
525	720	600	600	57448	-48538
526	718	600	600	57448	-48306
527	718	600	600	57448	-48306
528	719	600	600	57690	-48306
529	717	600	600	57690	-48080
530	717	600	600	57690	-48080
531	714	600	600	57933	-48080
532	714	600	600	57933	-47853
533	714	600	600	57933	-47853
534	714	600	600	58174	-47853
535	712	600	600	58174	-47628
536	710	600	600	58174	-47628
537	710	600	600	58414	-47628
538	710	600	600	58414	-47406
539	710	600	600	58414	-47406
540	706	600	600	58650	-47406
541	707	600	600	58650	-47184
542	706	600	600	58650	-47184
543	706	600	600	58885	-47184
544	702	600	600	58885	-46963
545	701	600	600	58885	-46963
546	702	600	600	59120	-46963
547	701	600	600	59120	-46740
548	700	600	600	59120	-46740
549	697	600	600	59350	-46740
550	698	600	600	59350	-46517
551	697	600	600	59350	-46517
552	698	600	600	59580	-46517
553	694	600	600	59580	-46294
554	695	600	600	59580	-46294
555	694	600	600	59580	-46294
556	694	600	600	59812	-46073
557	691	600	600	59812	-46073
558	690	600	600	59812	-46073
559	690	600	600	60040	-45844
560	691	600	600	60040	-45844
561	689	600	600	60040	-45844
562	690	600	600	60269	-45618
563	686	600	600	60269	-45618
564	686	600	600	60269	-45618
565	686	600	600	60496	-45395
566	685	600	600	60496	-45395
567	685	600	600	60496	-45395
568	685	600	600	60720	-45168
569	682	600	600	60720	-45168
570	681	600	600	60720	-45168
571	682	600	600	60942	-44945
572	682	600	600	60942	-44945
573	682	600	600	60942	-44945
574	682	600	600	61163	-44722
575	681	600	600	61163	-44722
576	682	600	600	61163	-44722
577	680	600	600	61378	-44502
578	678	600	600	61378	-44502
579	677	600	600	61378	-44502
580	678	600	600	61597	-44288
581	678	600	600	61597	-44288
582	678	600	600	61597	-44288
583	677	600	600	61811	-44074
584	678	600	600	61811	-44074
585	678	600	600	61811	-44074
586	678	600	600	62027	-43862
587	674	600	600	62027	-43862
588	674	600	600	62027	-43862
589	674	600	600	62243	-43653
590	674	600	600	62243	-43653
591	674	600	600	62243	-43653
592	674	600	600	62457	-43446
593	673	600	600	62457	-43446
594	675	600	600	62457	-43446
595	674	600	600	62671	-43239
596	674	600	600	62671	-43239
597	674	600	600	62671	-43239
598	674	600	600	62883	-43036
599	674	600	600	62883	-43036
600	673	600	600	62883	-43036
601	673	600	600	63098	-42835
602	670	600	600	63098	-42835
603	669	600	600	63098	-42835
604	670	600	600	63306	-42632
605	669	600	600	63306	-42632
606	670	600	600	63306	-42632
607	670	600	600	63518	-42433
608	669	600	600	63518	-42433
609	670	600	600	63518	-42433
610	671	600	600	63722	-42239
611	670	600	600	63722	-42239
612	669	600	600	63722	-42239
613	670	600	600	63932	-42042
614	669	600	600	63932	-42042
615	670	600	600	63932	-42042
616	669	600	600	64138	-41845
617	669	600	600	64138	-41845
618	670	600	600	64138	-41845
619	670	600	600	64346	-41646
620	669	600	600	64346	-41646
621	670	600	600	64346	-41646
622	670	600	600	64553	-41454
623	670	600	600	64553	-41454
624	670	600	600	64553	-41454
625	670	600	600	64758	-41257
626	669	600	600	64758	-41257
627	670	600	600	64758	-41257
628	669	600	600	64961	-41061
629	670	600	600	64961	-41061
630	670	600	600	64961	-41061
631	670	600	600	65169	-40864
632	670	600	600	65169	-40864
633	669	600	600	65169	-40864
634	670	600	600	65370	-40668
635	670	600	600	65370	-40668
636	670	600	600	65370	-40668
637	670	600	600	65576	-40668
638	670	600	600	65576	-40475
639	670	600	600	65576	-40475
640	670	600	600	65774	-40475
641	670	600	600	65774	-40282
642	672	600	600	65774	-40282
643	674	600	600	65979	-40282
644	674	600	600	65979	-40089
645	674	600	600	65979	-40089
646	673	600	600	66179	-40089
647	674	600	600	66179	-39900
648	674	600	600	66179	-39900
649	674	600	600	66383	-39900
650	674	600	600	66383	-39706
651	674	600	600	66383	-39706
652	673	600	600	66586	-39706
653	674	600	600	66586	-39521
654	674	600	600	66586	-39521
655	674	600	600	66789	-39521
656	674	600	600	66789	-39331
657	673	600	600	66789	-39331
658	673	600	600	66988	-39331
659	674	600	600	66988	-39142
660	674	600	600	66988	-39142
661	674	600	600	67191	-39142
662	674	600	600	67191	-38953
663	674	600	600	67191	-38953
664	673	600	600	67191	-38953
665	674	600	600	67390	-38767
666	673	600	600	67390	-38767
667	674	600	600	67390	-38767
668	674	600	600	67590	-38577
669	674	600	600	67590	-38577
670	674	600	600	67785	-38577
671	675	600	600	67785	-38389
672	674	600	600	67785	-38389
673	674	600	600	67785	-38389
674	674	600	600	67988	-38201
675	675	600	600	67988	-38201
676	675	600	600	67988	-38201
677	673	600	600	68187	-38015
678	674	600	600	68187	-38015
679	674	600	600	68187	-38015
680	674	600	600	68384	-37825
681	675	600	600	68384	-37825
682	674	600	600	68384	-37825
683	673	600	600	68583	-37637
684	674	600	600	68583	-37637
685	673	600	600	68583	-37637
686	673	600	600	68779	-37451
687	673	600	600	68779	-37451
688	674	600	600	68779	-37451
689	674	600	600	68974	-37262
690	674	600	600	68974	-37262
691	674	600	600	68974	-37262
692	674	600	600	69172	-37074
693	674	600	600	69172	-37074
694	674	600	600	69172	-37074
695	675	600	600	69368	-36886
696	674	600	600	69368	-36886
697	675	600	600	69368	-36886
698	674	600	600	69563	-36698
699	674	600	600	69563	-36698
700	674	600	600	69563	-36698
701	674	600	600	69758	-36509
702	674	600	600	69758	-36509
703	674	600	600	69758	-36509
704	675	600	600	69954	-36323
705	674	600	600	69954	-36323
706	674	600	600	69954	-36323
707	674	600	600	70148	-36139
708	674	600	600	70148	-36139
709	675	600	600	70148	-36139
710	674	600	600	70342	-35954
711	674	600	600	70342	-35954
712	674	600	600	70342	-35954
713	674	600	600	70535	-35768
714	673	600	600	70535	-35768
715	674	600	600	70535	-35768
716	673	600	600	70730	-35585
717	673	600	600	70730	-35585
718	674	600	600	70730	-35585
719	674	600	600	70922	-35403
720	674	600	600	70922	-35403
721	674	600	600	70922	-35403
722	674	600	600	71112	-35218
723	674	600	600	71112	-35218
724	674	600	600	71112	-35218
725	674	600	600	71307	-35033
726	674	600	600	71307	-35033
727	675	600	600	71307	-35033
728	673	600	600	71494	-34849
729	675	600	600	71494	-34849
730	675	600	600	71494	-34849
731	673	600	600	71686	-34666
732	674	600	600	71686	-34666
733	674	600	600	71686	-34666
734	675	600	600	71873	-34480
735	673	600	600	71873	-34480
736	674	600	600	71873	-34480
737	675	600	600	72065	-34300
738	674	600	600	72065	-34300
739	674	600	600	72065	-34300
740	674	600	600	72258	-34117
741	675	600	600	72258	-34117
742	674	600	600	72258	-34117
743	674	600	600	72445	-33936
744	674	600	600	72445	-33936
745	675	600	600	72445	-33936
746	674	600	600	72637	-33757
747	674	600	600	72637	-33757
748	674	600	600	72637	-33757
749	675	600	600	72826	-33572
750	674	600	600	72826	-33572
751	674	600	600	72826	-33572
752	673	600	600	73016	-33393
753	675	600	600	73016	-33393
754	674	600	600	73016	-33393
755	674	600	600	73206	-33393
756	674	600	600	73206	-33212
757	675	600	600	73206	-33212
758	673	600	600	73394	-33212
759	674	600	600	73394	-33029
760	674	600	600	73394	-33029
761	674	600	600	73582	-33029
762	674	600	600	73582	-32847
763	674	600	600	73582	-32847
764	675	600	600	73771	-32847
765	675	600	600	73771	-32665
766	675	600	600	73771	-32665
767	674	600	600	73955	-32665
768	674	600	600	73955	-32484
769	675	600	600	73955	-32484
770	674	600	600	74146	-32484
771	674	600	600	74146	-32306
772	674	600	600	74146	-32306
773	674	600	600	74332	-32306
774	674	600	600	74332	-32131
775	673	600	600	74332	-32131
776	673	600	600	74517	-32131
777	674	600	600	74517	-31949
778	674	600	600	74517	-31949
779	674	600	600	74705	-31949
780	674	600	600	74705	-31774
781	675	600	600	74705	-31774
782	675	600	600	74890	-31774
783	674	600	600	74890	-31595
784	675	600	600	74890	-31595
785	674	600	600	75075	-31595
786	674	600	600	75075	-31416
787	674	600	600	75075	-31416
788	674	600	600	75261	-31416
789	674	600	600	75261	-31241
790	674	600	600	75261	-31241
791	674	600	600	75261	-31241
792	673	600	600	75445	-31064
793	673	600	600	75445	-31064
794	673	600	600	75445	-31064
795	674	600	600	75628	-30884
796	674	600	600	75628	-30884
797	674	600	600	75628	-30884
798	675	600	600	75812	-30707
799	674	600	600	75812	-30707
800	675	600	600	75812	-30707
801	674	600	600	75991	-30532
802	675	600	600	75991	-30532
803	674	600	600	75991	-30532
804	675	600	600	76177	-30354
805	674	600	600	76177	-30354
806	674	600	600	76177	-30354
807	674	600	600	76360	-30178
808	675	600	600	76360	-30178
809	674	600	600	76360	-30178
810	674	600	600	76539	-30005
811	673	600	600	76539	-30005
812	673	600	600	76539	-30005
813	675	600	600	76724	-29832
814	674	600	600	76724	-29832
815	674	600	600	76724	-29832
816	673	600	600	76905	-29659
817	674	600	600	76905	-29659
818	673	600	600	76905	-29659
819	675	600	600	77087	-29480
820	674	600	600	77087	-29480
821	674	600	600	77087	-29480
822	673	600	600	77266	-29308
823	673	600	600	77266	-29308
824	674	600	600	77266	-29308
825	673	600	600	77449	-29136
826	674	600	600	77449	-29136
827	673	600	600	77449	-29136
828	673	600	600	77625	-28958
829	673	600	600	77625	-28958
830	673	600	600	77625	-28958
831	674	600	600	77803	-28783
832	674	600	600	77803	-28783
833	674	600	600	77803	-28783
834	674	600	600	77981	-28607
835	674	600	600	77981	-28607
836	674	600	600	77981	-28607
837	674	600	600	78159	-28434
838	673	600	600	78159	-28434
839	673	600	600	78159	-28434
840	674	600	600	78337	-28257
841	674	600	600	78337	-28257
842	675	600	600	78337	-28257
843	674	600	600	78516	-28257
844	674	600	600	78516	-28087
845	675	600	600	78516	-28087
846	673	600	600	78693	-28087
847	674	600	600	78693	-27918
848	675	600	600	78693	-27918
849	674	600	600	78870	-27918
850	673	600	600	78870	-27745
851	674	600	600	78870	-27745
852	674	600	600	79047	-27745
853	674	600	600	79047	-27574
854	674	600	600	79047	-27574
855	673	600	600	79223	-27574
856	674	600	600	79223	-27405
857	674	600	600	79223	-27405
858	674	600	600	79401	-27405
859	674	600	600	79401	-27238
860	675	600	600	79401	-27238
861	674	600	600	79575	-27238
862	674	600	600	79575	-27067
863	673	600	600	79575	-27067
864	674	600	600	79748	-27067
865	674	600	600	79748	-26895
866	673	600	600	79748	-26895
867	673	600	600	79922	-26895
868	674	600	600	79922	-26725
869	673	600	600	79922	-26725
870	673	600	600	80092	-26725
871	673	600	600	80092	-26555
872	674	600	600	80092	-26555
873	675	600	600	80268	-26555
874	674	600	600	80268	-26386
875	673	600	600	80268	-26386
876	674	600	600	80442	-26386
877	674	600	600	80442	-26212
878	674	600	600	80442	-26212
879	674	600	600	80614	-26212
880	674	600	600	80614	-26045
881	674	600	600	80614	-26045
882	673	600	600	80786	-26045
883	674	600	600	80786	-25880
884	674	600	600	80786	-25880
885	674	600	600	80959	-25880
886	674	600	600	80959	-25713
887	674	600	600	80959	-25713
888	674	600	600	81132	-25713
889	674	600	600	81132	-25544
890	674	600	600	81132	-25544
891	674	600	600	81304	-25544
892	674	600	600	81304	-25375
893	675	600	600	81304	-25375
894	674	600	600	81476	-25375
895	674	600	600	81476	-25211
896	674	600	600	81476	-25211
897	674	600	600	81476	-25211
898	674	600	600	81648	-25047
899	674	600	600	81648	-25047
900	674	600	600	81648	-25047
901	673	600	600	81818	-24880
902	673	600	600	81818	-24880
903	674	600	600	81818	-24880
904	674	600	600	81987	-24712
905	674	600	600	81987	-24712
906	674	600	600	81987	-24712
907	674	600	600	82154	-24544
908	674	600	600	82154	-24544
909	674	600	600	82154	-24544
910	674	600	600	82327	-24378
911	674	600	600	82327	-24378
912	674	600	600	82327	-24378
913	674	600	600	82497	-24211
914	674	600	600	82497	-24211
915	674	600	600	82497	-24211
916	675	600	600	82664	-24048
917	674	600	600	82664	-24048
918	674	600	600	82664	-24048
919	674	600	600	82830	-23884
920	674	600	600	82830	-23884
921	674	600	600	82830	-23884
922	673	600	600	82999	-23718
923	674	600	600	82999	-23718
924	673	600	600	82999	-23718
925	674	600	600	83167	-23558
926	674	600	600	83167	-23558
927	673	600	600	83167	-23558
928	674	600	600	83333	-23392
929	673	600	600	83333	-23392
930	674	600	600	83333	-23392
931	674	600	600	83503	-23227
932	673	600	600	83503	-23227
933	674	600	600	83503	-23227
934	673	600	600	83668	-23065
935	673	600	600	83668	-23065
936	674	600	600	83668	-23065
937	673	600	600	83834	-22905
938	674	600	600	83834	-22905
939	674	600	600	83834	-22905
940	674	600	600	84002	-22742
941	674	600	600	84002	-22742
942	674	600	600	84002	-22742
943	675	600	600	84164	-22579
944	674	600	600	84164	-22579
945	674	600	600	84164	-22579
946	674	600	600	84334	-22415
947	674	600	600	84334	-22415
948	674	600	600	84334	-22415
949	674	600	600	84503	-22251
950	674	600	600	84503	-22251
951	674	600	600	84503	-22251
952	673	600	600	84669	-22089
953	674	600	600	84669	-22089
954	675	600	600	84669	-22089
955	674	600	600	84834	-21931
956	674	600	600	84834	-21931
957	674	600	600	84834	-21931
958	675	600	600	85000	-21773
959	674	600	600	85000	-21773
960	674	600	600	85000	-21773
961	674	600	600	85166	-21773
962	674	600	600	85166	-21612
963	673	600	600	85166	-21612
964	674	600	600	85328	-21612
965	674	600	600	85328	-21453
966	674	600	600	85328	-21453
967	674	600	600	85493	-21453
968	674	600	600	85493	-21291
969	675	600	600	85493	-21291
970	674	600	600	85657	-21291
971	674	600	600	85657	-21134
972	674	600	600	85657	-21134
973	673	600	600	85817	-21134
974	674	600	600	85817	-20979
975	674	600	600	85817	-20979
976	674	600	600	85976	-20979
977	674	600	600	85976	-20823
978	674	600	600	85976	-20823
979	673	600	600	86139	-20823
980	674	600	600	86139	-20663
981	673	600	600	86139	-20663
982	674	600	600	86301	-20663
983	674	600	600	86301	-20505
984	674	600	600	86301	-20505
985	674	600	600	86463	-20505
986	674	600	600	86463	-20348
987	674	600	600	86463	-20348
988	673	600	600	86625	-20348
989	674	600	600	86625	-20190
990	674	600	600	86625	-20190
991	674	600	600	86786	-20190
992	674	600	600	86786	-20035
993	673	600	600	86786	-20035
994	673	600	600	86950	-20035
995	674	600	600	86950	-19883
996	674	600	600	86950	-19883
997	673	600	600	87112	-19883
998	674	600	600	87112	-19731
999	674	600	600	87112	-19731
1000	674	600	600	87272	-19731
1001	674	600	600	87272	-19576
1002	674	600	600	87272	-19576
1003	674	600	600	87430	-19576
1004	674	600	600	87430	-19423
1005	674	600	600	87430	-19423
1006	674	600	600	87594	-19423
1007	675	600	600	87594	-19266
1008	674	600	600	87594	-19266
1009	674	600	600	87751	-19266
1010	674	600	600	87751	-19112
1011	674	600	600	87751	-19112
1012	675	600	600	87909	-19112
1013	674	600	600	87909	-18961
1014	674	600	600	87909	-18961
1015	674	600	600	87909	-18961
1016	674	600	600	88067	-18810
1017	674	600	600	88067	-18810
1018	673	600	600	88067	-18810
1019	674	600	600	88226	-18656
1020	673	600	600	88226	-18656
1021	677	600	600	88226	-18656
1022	678	600	600	88385	-18502
1023	678	600	600	88385	-18502
1024	678	600	600	88385	-18502
1025	678	600	600	88544	-18347
1026	678	600	600	88544	-18347
1027	678	600	600	88544	-18347
1028	678	600	600	88699	-18194
1029	678	600	600	88699	-18194
1030	678	600	600	88699	-18194
1031	678	600	600	88859	-18041
1032	678	600	600	88859	-18041
1033	678	600	600	88859	-18041
1034	678	600	600	89017	-17890
1035	678	600	600	89017	-17890
1036	678	600	600	89017	-17890
1037	678	600	600	89175	-17743
1038	677	600	600	89175	-17743
1039	678	600	600	89175	-17743
1040	677	600	600	89332	-17591
1041	678	600	600	89332	-17591
1042	677	600	600	89332	-17591
1043	678	600	600	89489	-17443
1044	678	600	600	89489	-17443
1045	678	600	600	89489	-17443
1046	678	600	600	89647	-17291
1047	678	600	600	89647	-17291
1048	678	600	600	89647	-17291
1049	677	600	600	89800	-17141
1050	678	600	600	89800	-17141
1051	677	600	600	89800	-17141
1052	677	600	600	89953	-16997
1053	678	600	600	89953	-16997
1054	678	600	600	89953	-16997
1055	678	600	600	90108	-16849
1056	678	600	600	90108	-16849
1057	678	600	600	90108	-16849
1058	678	600	600	90263	-16702
1059	678	600	600	90263	-16702
1060	678	600	600	90263	-16702
1061	678	600	600	90418	-16550
1062	678	600	600	90418	-16550
1063	678	600	600	90418	-16550
1064	678	600	600	90569	-16403
1065	677	600	600	90569	-16403
1066	678	600	600	90569	-16403
1067	678	600	600	90722	-16255
1068	677	600	600	90722	-16255
1069	678	600	600	90722	-16255
1070	677	600	600	90874	-16105
1071	678	600	600	90874	-16105
1072	678	600	600	90874	-16105
1073	678	600	600	91028	-15958
1074	677	600	600	91028	-15958
1075	677	600	600	91028	-15958
1076	678	600	600	91183	-15814
1077	678	600	600	91183	-15814
1078	677	600	600	91183	-15814
1079	678	600	600	91335	-15671
1080	678	600	600	91335	-15671
1081	678	600	600	91335	-15671
1082	678	600	600	91489	-15671
1083	678	600	600	91489	-15524
1084	678	600	600	91489	-15524
1085	678	600	600	91644	-15524
1086	678	600	600	91644	-15380
1087	677	600	600	91644	-15380
1088	677	600	600	91797	-15380
1089	678	600	600	91797	-15231
1090	678	600	600	91797	-15231
1091	678	600	600	91947	-15231
1092	678	600	600	91947	-15085
1093	677	600	600	91947	-15085
1094	678	600	600	92096	-15085
1095	677	600	600	92096	-14942
1096	678	600	600	92096	-14942
1097	678	600	600	92248	-14942
1098	677	600	600	92248	-14795
1099	678	600	600	92248	-14795
1100	678	600	600	92395	-14795
1101	677	600	600	92395	-14650
1102	677	600	600	92395	-14650
1103	677	600	600	92549	-14650
1104	678	600	600	92549	-14502
1105	678	600	600	92549	-14502
1106	678	600	600	92701	-14502
1107	678	600	600	92701	-14356
1108	678	600	600	92701	-14356
1109	678	600	600	92849	-14356
1110	678	600	600	92849	-14210
1111	678	600	600	92849	-14210
1112	678	600	600	92996	-14210
1113	678	600	600	92996	-14061
1114	678	600	600	92996	-14061
1115	677	600	600	93144	-14061
1116	677	600	600	93144	-13915
1117	678	600	600	93144	-13915
1118	677	600	600	93291	-13915
1119	678	600	600	93291	-13772
1120	677	600	600	93291	-13772
1121	679	600	600	93439	-13772
1122	678	600	600	93439	-13632
1123	677	600	600	93439	-13632
1124	678	600	600	93587	-13632
1125	677	600	600	93587	-13488
1126	677	600	600	93587	-13488
1127	678	600	600	93736	-13488
1128	677	600	600	93736	-13347
1129	677	600	600	93736	-13347
1130	677	600	600	93881	-13347
1131	678	600	600	93881	-13201
1132	677	600	600	93881	-13201
1133	678	600	600	93881	-13201
1134	678	600	600	94026	-13059
1135	678	600	600	94026	-13059
1136	678	600	600	94026	-13059
1137	678	600	600	94174	-12919
1138	678	600	600	94174	-12919
1139	678	600	600	94174	-12919
1140	678	600	600	94323	-12779
1141	678	600	600	94323	-12779
1142	678	600	600	94323	-12779
1143	677	600	600	94467	-12640
1144	678	600	600	94467	-12640
1145	677	600	600	94467	-12640
1146	678	600	600	94618	-12497
1147	678	600	600	94618	-12497
1148	677	600	600	94618	-12497
1149	678	600	600	94764	-12355
1150	677	600	600	94764	-12355
1151	677	600	600	94764	-12355
1152	678	600	600	94908	-12210
1153	678	600	600	94908	-12210
1154	678	600	600	94908	-12210
1155	678	600	600	95052	-12068
1156	678	600	600	95052	-12068
1157	678	600	600	95052	-12068
1158	678	600	600	95199	-11926
1159	678	600	600	95199	-11926
1160	678	600	600	95199	-11926
1161	677	600	600	95344	-11787
1162	678	600	600	95344	-11787
1163	677	600	600	95344	-11787
1164	678	600	600	95488	-11650
1165	678	600	600	95488	-11650
1166	678	600	600	95488	-11650
1167	678	600	600	95630	-11509
1168	678	600	600	95630	-11509
1169	678	600	600	95630	-11509
1170	678	600	600	95775	-11369
1171	677	600	600	95775	-11369
1172	677	600	600	95775	-11369
1173	678	600	600	95917	-11235
1174	678	600	600	95917	-11235
1175	678	600	600	95917	-11235
1176	678	600	600	96059	-11094
1177	678	600	600	96059	-11094
1178	677	600	600	96059	-11094
1179	678	600	600	96200	-10956
1180	677	600	600	96200	-10956
1181	677	600	600	96200	-10956
1182	677	600	600	96345	-10821
1183	678	600	600	96345	-10821
1184	677	600	600	96345	-10821
1185	678	600	600	96484	-10685
1186	677	600	600	96484	-10685
1187	678	600	600	96484	-10685
1188	678	600	600	96631	-10549
1189	678	600	600	96631	-10549
1190	678	600	600	96631	-10549
1191	678	600	600	96775	-10408
1192	678	600	600	96775	-10408
1193	678	600	600	96775	-10408
1194	677	600	600	96916	-10271
1195	678	600	600	96916	-10271
1196	678	600	600	96916	-10271
1197	678	600	600	97059	-10132
1198	678	600	600	97059	-10132
1199	677	600	600	97059	-10132
1200	677	600	600	97201	-9994
1201	678	600	600	97201	-9994
1202	678	600	600	97201	-9994
1203	677	600	600	97343	-9856
1204	678	600	600	97343	-9856
1205	678	600	600	97343	-9856
1206	677	600	600	97485	-9856
1207	678	600	600	97485	-9722
1208	677	600	600	97485	-9722
1209	678	600	600	97626	-9722
1210	678	600	600	97626	-9591
1211	678	600	600	97626	-9591
1212	678	600	600	97767	-9591
1213	678	600	600	97767	-9456
1214	678	600	600	97767	-9456
1215	678	600	600	97907	-9456
1216	678	600	600	97907	-9320
1217	678	600	600	97907	-9320
1218	678	600	600	98046	-9320
1219	677	600	600	98046	-9188
1220	678	600	600	98046	-9188
1221	678	600	600	98182	-9188
1222	678	600	600	98182	-9050
1223	678	600	600	98182	-9050
1224	678	600	600	98322	-9050
1225	678	600	600	98322	-8918
1226	678	600	600	98322	-8918
1227	678	600	600	98461	-8918
1228	678	600	600	98461	-8789
1229	678	600	600	98461	-8789
1230	677	600	600	98601	-8789
1231	677	600	600	98601	-8657
1232	678	600	600	98601	-8657
1233	678	600	600	98739	-8657
1234	678	600	600	98739	-8525
1235	677	600	600	98739	-8525
1236	677	600	600	98876	-8525
1237	678	600	600	98876	-8389
1238	678	600	600	98876	-8389
1239	678	600	600	99012	-8389
1240	678	600	600	99012	-8254
1241	677	600	600	99012	-8254
1242	678	600	600	99149	-8254
1243	677	600	600	99149	-8119
1244	678	600	600	99149	-8119
1245	678	600	600	99288	-8119
1246	678	600	600	99288	-7983
1247	677	600	600	99288	-7983
1248	678	600	600	99424	-7983
1249	677	600	600	99424	-7848
1250	678	600	600	99424	-7848
1251	678	600	600	99424	-7848
1252	678	600	600	99560	-7715
1253	677	600	600	99560	-7715
1254	678	600	600	99560	-7715
1255	677	600	600	99697	-7583
1256	678	600	600	99697	-7583
1257	678	600	600	99697	-7583
1258	678	600	600	99836	-7450
1259	678	600	600	99836	-7450
1260	678	600	600	99836	-7450
1261	677	600	600	99973	-7315
1262	677	600	600	99973	-7315
1263	678	600	600	99973	-7315
1264	677	600	600	100109	-7185
1265	678	600	600	100109	-7185
1266	678	600	600	100109	-7185
1267	678	600	600	100240	-7049
1268	677	600	600	100240	-7049
1269	678	600	600	100240	-7049
1270	678	600	600	100376	-6916
1271	678	600	600	100376	-6916
1272	678	600	600	100376	-6916
1273	678	600	600	100509	-6786
1274	678	600	600	100509	-6786
1275	678	600	600	100509	-6786
1276	678	600	600	100641	-6653
1277	678	600	600	100641	-6653
1278	678	600	600	100641	-6653
1279	677	600	600	100774	-6523
1280	677	600	600	100774	-6523
1281	678	600	600	100774	-6523
1282	678	600	600	100905	-6391
1283	678	600	600	100905	-6391
1284	678	600	600	100905	-6391
1285	678	600	600	101035	-6258
1286	677	600	600	101035	-6258
1287	678	600	600	101035	-6258
1288	677	600	600	101166	-6128
1289	678	600	600	101166	-6128
1290	677	600	600	101166	-6128
1291	678	600	600	101296	-5996
1292	678	600	600	101296	-5996
1293	678	600	600	101296	-5996
1294	678	600	600	101428	-5862
1295	678	600	600	101428	-5862
1296	678	600	600	101428	-5862
1297	679	600	600	101559	-5731
1298	677	600	600	101559	-5731
1299	677	600	600	101559	-5731
1300	677	600	600	101693	-5604
1301	678	600	600	101693	-5604
1302	678	600	600	101693	-5604
1303	678	600	600	101823	-5481
1304	678	600	600	101823	-5481
1305	678	600	600	101823	-5481
1306	678	600	600	101952	-5352
1307	678	600	600	101952	-5352
1308	678	600	600	101952	-5352
1309	678	600	600	102079	-5223
1310	677	600	600	102079	-5223
1311	678	600	600	102079	-5223
1312	677	600	600	102206	-5101
1313	678	600	600	102206	-5101
1314	678	600	600	102206	-5101
1315	677	600	600	102333	-4970
1316	678	600	600	102333	-4970
1317	678	600	600	102333	-4970
1318	677	600	600	102464	-4845
1319	677	600	600	102464	-4845
1320	678	600	600	102464	-4845
1321	677	600	600	102590	-4724
1322	678	600	600	102590	-4724
1323	678	600	600	102590	-4724
1324	678	600	600	102722	-4724
1325	678	600	600	102722	-4599
1326	678	600	600	102722	-4599
1327	678	600	600	102851	-4599
1328	678	600	600	102851	-4477
1329	678	600	600	102851	-4477
1330	678	600	600	102979	-4477
1331	678	600	600	102979	-4350
1332	678	600	600	102979	-4350
1333	678	600	600	103107	-4350
1334	678	600	600	103107	-4223
1335	678	600	600	103107	-4223
1336	677	600	600	103233	-4223
1337	678	600	600	103233	-4099
1338	678	600	600	103233	-4099
1339	678	600	600	103359	-4099
1340	678	600	600	103359	-3974
1341	678	600	600	103359	-3974
1342	678	600	600	103487	-3974
1343	678	600	600	103487	-3848
1344	678	600	600	103487	-3848
1345	678	600	600	103613	-3848
1346	678	600	600	103613	-3727
1347	677	600	600	103613	-3727
1348	678	600	600	103741	-3727
1349	677	600	600	103741	-3607
1350	678	600	600	103741	-3607
1351	678	600	600	103868	-3607
1352	677	600	600	103868	-3487
1353	678	600	600	103868	-3487
1354	677	600	600	103993	-3487
1355	677	600	600	103993	-3366
1356	678	600	600	103993	-3366
1357	679	600	600	104116	-3366
1358	678	600	600	104116	-3240
1359	678	600	600	104116	-3240
1360	677	600	600	104239	-3240
1361	677	600	600	104239	-3121
1362	679	600	600	104239	-3121
1363	678	600	600	104362	-3121
1364	678	600	600	104362	-3000
1365	678	600	600	104362	-3000
1366	678	600	600	104487	-3000
1367	678	600	600	104487	-2877
1368	678	600	600	104487	-2877
1369	678	600	600	104487	-2877
1370	678	600	600	104607	-2756
1371	677	600	600	104607	-2756
1372	677	600	600	104607	-2756
1373	677	600	600	104729	-2638
1374	678	600	600	104729	-2638
1375	678	600	600	104729	-2638
1376	678	600	600	104854	-2518
1377	677	600	600	104854	-2518
1378	678	600	600	104854	-2518
1379	677	600	600	104976	-2401
1380	678	600	600	104976	-2401
1381	678	600	600	104976	-2401
1382	678	600	600	105097	-2279
1383	677	600	600	105097	-2279
1384	678	600	600	105097	-2279
1385	678	600	600	105221	-2157
1386	677	600	600	105221	-2157
1387	678	600	600	105221	-2157
1388	678	600	600	105341	-2036
1389	678	600	600	105341	-2036
1390	678	600	600	105341	-2036
1391	678	600	600	105468	-1914
1392	678	600	600	105468	-1914
1393	678	600	600	105468	-1914
1394	678	600	600	105592	-1792
1395	678	600	600	105592	-1792
1396	677	600	600	105592	-1792
1397	678	600	600	105717	-1673
1398	678	600	600	105717	-1673
1399	678	600	600	105717	-1673
1400	678	600	600	105841	-1556
1401	677	600	600	105841	-1556
1402	677	600	600	105841	-1556
1403	678	600	600	105964	-1439
1404	677	600	600	105964	-1439
1405	678	600	600	105964	-1439
1406	678	600	600	106083	-1323
1407	677	600	600	106083	-1323
1408	678	600	600	106083	-1323
1409	678	600	600	106199	-1205
1410	678	600	600	106199	-1205
1411	678	600	600	106199	-1205
1412	678	600	600	106313	-1093
1413	678	600	600	106313	-1093
1414	677	600	600	106313	-1093
1415	678	600	600	106432	-979
1416	678	600	600	106432	-979
1417	678	600	600	106432	-979
1418	678	600	600	106553	-858
1419	678	600	600	106553	-858
1420	678	600	600	106553	-858
1421	677	600	600	106668	-741
1422	677	600	600	106668	-741
1423	678	600	600	106668	-741
1424	678	600	600	106787	-625
1425	678	600	600	106787	-625
1426	678	600	600	106787	-625
1427	677	600	600	106905	-506
1428	678	600	600	106905	-506
1429	678	600	600	106905	-506
1430	677	600	600	107019	-394
1431	678	600	600	107019	-394
1432	677	600	600	107019	-394
1433	678	600	600	107132	-274
1434	678	600	600	107132	-274
1435	678	600	600	107132	-274
1436	678	600	600	107250	-152
1437	678	600	600	107250	-152
1438	678	600	600	107250	-152
1439	678	600	600	107364	-35
1440	678	600	600	107364	-35
1441	677	600	600	107364	-35
1442	679	600	600	107483	-35
1443	678	600	600	107483	85
1444	678	600	600	107483	85
1445	678	600	600	107602	85
1446	677	600	600	107602	202
1447	678	600	600	107602	202
1448	678	600	600	107717	202
1449	677	600	600	107717	318
1450	678	600	600	107717	318
1451	678	600	600	107836	318
1452	678	600	600	107836	434
1453	678	600	600	107836	434
1454	678	600	600	107953	434
1455	678	600	600	107953	548
1456	678	600	600	107953	548
1457	677	600	600	108068	548
1458	678	600	600	108068	658
1459	678	600	600	108068	658
1460	678	600	600	108184	658
1461	678	600	600	108184	771
1462	678	600	600	108184	771
1463	678	600	600	108300	771
1464	677	600	600	108300	886
1465	678	600	600	108300	886
1466	678	600	600	108410	886
1467	678	600	600	108410	996
1468	678	600	600	108410	996
1469	677	600	600	108527	996
1470	678	600	600	108527	1112
1471	678	600	600	108527	1112
1472	677	600	600	108642	1112
1473	678	600	600	108642	1226
1474	678	600	600	108642	1226
1475	678	600	600	108749	1226
1476	678	600	600	108749	1337
1477	678	600	600	108749	1337
1478	678	600	600	108868	1337
1479	678	600	600	108868	1445
1480	677	600	600	108868	1445
1481	678	600	600	108981	1445
1482	678	600	600	108981	1560
1483	678	600	600	108981	1560
1484	677	600	600	108981	1560
1485	678	600	600	109087	1671
1486	677	600	600	109087	1671
1487	678	600	600	109087	1671
1488	678	600	600	109191	1787
1489	678	600	600	109191	1787
1490	678	600	600	109191	1787
1491	678	600	600	109300	1903
1492	677	600	600	109300	1903
1493	678	600	600	109300	1903
1494	677	600	600	109407	2012
1495	678	600	600	109407	2012
1496	678	600	600	109407	2012
1497	678	600	600	109518	2125
1498	678	600	600	109518	2125
1499	678	600	600	109518	2125
1500	678	600	600	109631	2240
1501	678	600	600	109631	2240
1502	678	600	600	109631	2240
1503	677	600	600	109738	2352
1504	678	600	600	109738	2352
1505	678	600	600	109738	2352
1506	679	600	600	109849	2462
1507	677	600	600	109849	2462
1508	678	600	600	109849	2462
1509	678	600	600	109958	2569
1510	677	600	600	109958	2569
1511	677	600	600	109958	2569
1512	678	600	600	110071	2671
1513	677	600	600	110071	2671
1514	678	600	600	110071	2671
1515	677	600	600	110181	2778
1516	677	600	600	110181	2778
1517	677	600	600	110181	2778
1518	678	600	600	110288	2890
1519	678	600	600	110288	2890
1520	678	600	600	110288	2890
1521	678	600	600	110394	2995
1522	677	600	600	110394	2995
1523	677	600	600	110394	2995
1524	678	600	600	110503	3100
1525	678	600	600	110503	3100
1526	678	600	600	110503	3100
1527	678	600	600	110616	3210
1528	678	600	600	110616	3210
1529	678	600	600	110616	3210
1530	678	600	600	110724	3315
1531	677	600	600	110724	3315
1532	678	600	600	110724	3315
1533	678	600	600	110829	3418
1534	678	600	600	110829	3418
1535	678	600	600	110829	3418
1536	677	600	600	110941	3518
1537	678	600	600	110941	3518
1538	678	600	600	110941	3518
1539	678	600	600	111048	3622
1540	678	600	600	111048	3622
1541	677	600	600	111048	3622
1542	678	600	600	111156	3724
1543	678	600	600	111156	3724
1544	678	600	600	111156	3724
1545	678	600	600	111263	3831
1546	677	600	600	111263	3831
1547	677	600	600	111263	3831
1548	678	600	600	111371	3939
1549	678	600	600	111371	3939
1550	677	600	600	111371	3939
1551	678	600	600	111474	4040
1552	678	600	600	111474	4040
1553	678	600	600	111474	4040
1554	677	600	600	111583	4147
1555	678	600	600	111583	4147
1556	678	600	600	111583	4147
1557	678	600	600	111690	4147
1558	677	600	600	111690	4254
1559	678	600	600	111690	4254
1560	678	600	600	111793	4254
1561	678	600	600	111793	4359
1562	678	600	600	111793	4359
1563	678	600	600	111900	4359
1564	678	600	600	111900	4461
1565	678	600	600	111900	4461
1566	677	600	600	112007	4461
1567	678	600	600	112007	4564
1568	678	600	600	112007	4564
1569	677	600	600	112113	4564
1570	677	600	600	112113	4666
1571	678	600	600	112113	4666
1572	678	600	600	112215	4666
1573	678	600	600	112215	4764
1574	678	600	600	112215	4764
1575	677	600	600	112317	4764
1576	678	600	600	112317	4868
1577	678	600	600	112317	4868
1578	677	600	600	112421	4868
1579	677	600	600	112421	4975
1580	678	600	600	112421	4975
1581	678	600	600	112521	4975
1582	678	600	600	112521	5076
1583	677	600	600	112521	5076
1584	677	600	600	112628	5076
1585	677	600	600	112628	5180
1586	678	600	600	112628	5180
1587	678	600	600	112736	5180
1588	678	600	600	112736	5286
1589	678	600	600	112736	5286
1590	677	600	600	112836	5286
1591	677	600	600	112836	5387
1592	678	600	600	112836	5387
1593	678	600	600	112946	5387
1594	678	600	600	112946	5490
1595	678	600	600	112946	5490
1596	677	600	600	112946	5490
1597	678	600	600	113054	5593
1598	677	600	600	113054	5593
1599	677	600	600	113054	5593
1600	678	600	600	113155	5692
1601	678	600	600	113155	5692
1602	677	600	600	113155	5692
1603	678	600	600	113256	5788
1604	678	600	600	113256	5788
1605	677	600	600	113256	5788
1606	677	600	600	113360	5890
1607	677	600	600	113360	5890
1608	678	600	600	113360	5890
1609	678	600	600	113461	5992
1610	677	600	600	113461	5992
1611	678	600	600	113461	5992
1612	678	600	600	113559	6088
1613	678	600	600	113559	6088
1614	678	600	600	113559	6088
1615	678	600	600	113663	6191
1616	677	600	600	113663	6191
1617	677	600	600	113663	6191
1618	678	600	600	113768	6293
1619	678	600	600	113768	6293
1620	678	600	600	113768	6293
1621	678	600	600	113865	6395
1622	678	600	600	113865	6395
1623	678	600	600	113865	6395
1624	678	600	600	113969	6492
1625	678	600	600	113969	6492
1626	678	600	600	113969	6492
1627	677	600	600	114070	6591
1628	677	600	600	114070	6591
1629	678	600	600	114070	6591
1630	678	600	600	114167	6690
1631	678	600	600	114167	6690
1632	678	600	600	114167	6690
1633	678	600	600	114262	6780
1634	678	600	600	114262	6780
1635	677	600	600	114262	6780
1636	678	600	600	114359	6879
1637	678	600	600	114359	6879
1638	678	600	600	114359	6879
1639	678	600	600	114456	6982
1640	678	600	600	114456	6982
1641	678	600	600	114456	6982
1642	677	600	600	114547	7077
1643	677	600	600	114547	7077
1644	678	600	600	114547	7077
1645	677	600	600	114646	7168
1646	677	600	600	114646	7168
1647	678	600	600	114646	7168
1648	678	600	600	114748	7272
1649	678	600	600	114748	7272
1650	677	600	600	114748	7272
1651	678	600	600	114843	7372
1652	678	600	600	114843	7372
1653	678	600	600	114843	7372
1654	678	600	600	114936	7466
1655	678	600	600	114936	7466
1656	678	600	600	114936	7466
1657	678	600	600	115040	7559
1658	678	600	600	115040	7559
1659	678	600	600	115040	7559
1660	678	600	600	115137	7656
1661	677	600	600	115137	7656
1662	678	600	600	115137	7656
1663	678	600	600	115232	7746
1664	678	600	600	115232	7746
1665	677	600	600	115232	7746
1666	678	600	600	115325	7837
1667	677	600	600	115325	7837
1668	678	600	600	115325	7837
1669	677	600	600	115426	7935
1670	678	600	600	115426	7935
1671	678	600	600	115426	7935
1672	678	600	600	115521	7935
1673	677	600	600	115521	8034
1674	678	600	600	115521	8034
1675	677	600	600	115618	8034
1676	678	600	600	115618	8128
1677	678	600	600	115618	8128
1678	677	600	600	115717	8128
1679	678	600	600	115717	8227
1680	678	600	600	115717	8227
1681	678	600	600	115816	8227
1682	678	600	600	115816	8325
1683	678	600	600	115816	8325
1684	677	600	600	115909	8325
1685	678	600	600	115909	8423
1686	678	600	600	115909	8423
1687	677	600	600	116009	8423
1688	677	600	600	116009	8516
1689	677	600	600	116009	8516
1690	677	600	600	116107	8516
1691	678	600	600	116107	8610
1692	678	600	600	116107	8610
1693	678	600	600	116203	8610
1694	678	600	600	116203	8701
1695	678	600	600	116203	8701
1696	677	600	600	116293	8701
1697	678	600	600	116293	8793
1698	678	600	600	116293	8793
1699	678	600	600	116387	8793
1700	678	600	600	116387	8885
1701	678	600	600	116387	8885
1702	677	600	600	116478	8885
1703	677	600	600	116478	8984
1704	678	600	600	116478	8984
1705	677	600	600	116561	8984
1706	678	600	600	116561	9079
1707	678	600	600	116561	9079
1708	677	600	600	116653	9079
1709	678	600	600	116653	9169
1710	677	600	600	116653	9169
1711	677	600	600	116746	9169
1712	678	600	600	116746	9260
1713	677	600	600	116746	9260
1714	677	600	600	116839	9260
1715	678	600	600	116839	9359
1716	678	600	600	116839	9359
1717	678	600	600	116839	9359
1718	677	600	600	116923	9455
1719	678	600	600	116923	9455
1720	678	600	600	116923	9455
1721	678	600	600	117017	9543
1722	678	600	600	117017	9543
1723	678	600	600	117017	9543
1724	677	600	600	117110	9630
1725	677	600	600	117110	9630
1726	677	600	600	117110	9630
1727	677	600	600	117200	9723
1728	678	600	600	117200	9723
1729	678	600	600	117200	9723
1730	677	600	600	117286	9808
1731	677	600	600	117286	9808
1732	678	600	600	117286	9808
1733	678	600	600	117370	9893
1734	678	600	600	117370	9893
1735	677	600	600	117370	9893
1736	678	600	600	117460	9987
1737	677	600	600	117460	9987
1738	678	600	600	117460	9987
1739	677	600	600	117545	10082
1740	677	600	600	117545	10082
1741	677	600	600	117545	10082
1742	678	600	600	117627	10169
1743	677	600	600	117627	10169
1744	678	600	600	117627	10169
1745	678	600	600	117723	10262
1746	677	600	600	117723	10262
1747	679	600	600	117723	10262
1748	678	600	600	117819	10355
1749	677	600	600	117819	10355
1750	677	600	600	117819	10355
1751	678	600	600	117909	10449
1752	678	600	600	117909	10449
1753	678	600	600	117909	10449
1754	678	600	600	118002	10537
1755	677	600	600	118002	10537
1756	678	600	600	118002	10537
1757	678	600	600	118095	10624
1758	678	600	600	118095	10624
1759	677	600	600	118095	10624
1760	677	600	600	118189	10711
1761	677	600	600	118189	10711
1762	678	600	600	118189	10711
1763	678	600	600	118276	10799
1764	678	600	600	118276	10799
1765	678	600	600	118276	10799
1766	678	600	600	118365	10877
1767	678	600	600	118365	10877
1768	678	600	600	118365	10877
1769	678	600	600	118454	10966
1770	677	600	600	118454	10966
1771	678	600	600	118454	10966
1772	677	600	600	118543	11059
1773	678	600	600	118543	11059
1774	678	600	600	118543	11059
1775	678	600	600	118626	11147
1776	677	600	600	118626	11147
1777	678	600	600	118626	11147
1778	678	600	600	118716	11232
1779	678	600	600	118716	11232
1780	678	600	600	118716	11232
1781	678	600	600	118811	11323
1782	678	600	600	118811	11323
1783	678	600	600	118811	11323
1784	678	600	600	118901	11416
1785	677	600	600	118901	11416
1786	677	600	600	118901	11416
1787	678	600	600	118984	11503
1788	677	600	600	118984	11503
1789	678	600	600	118984	11503
1790	678	600	600	119079	11503
1791	677	600	600	119079	11584
1792	678	600	600	119079	11584
1793	677	600	600	119168	11584
1794	678	600	600	119168	11665
1795	677	600	600	119168	11665
1796	678	600	600	119254	11665
1797	678	600	600	119254	11753
1798	677	600	600	119254	11753
1799	677	600	600	119338	11753
1800	678	600	600	119338	11835
1801	677	600	600	119338	11835
1802	678	600	600	119422	11835
1803	678	600	600	119422	11914
1804	678	600	600	119422	11914
1805	677	600	600	119515	11914
1806	678	600	600	119515	12002
1807	678	600	600	119515	12002
1808	678	600	600	119601	12002
1809	678	600	600	119601	12093
1810	678	600	600	119601	12093
1811	678	600	600	119683	12093
1812	678	600	600	119683	12183
1813	678	600	600	119683	12183
1814	678	600	600	119776	12183
1815	678	600	600	119776	12269
1816	678	600	600	119776	12269
1817	678	600	600	119866	12269
1818	678	600	600	119866	12359
1819	678	600	600	119866	12359
1820	678	600	600	119948	12359
1821	677	600	600	119948	12451
1822	677	600	600	119948	12451
1823	678	600	600	120035	12451
1824	678	600	600	120035	12539
1825	678	600	600	120035	12539
1826	678	600	600	120125	12539
1827	678	600	600	120125	12623
1828	678	600	600	120125	12623
1829	678	600	600	120214	12623
1830	677	600	600	120214	12710
1831	678	600	600	120214	12710
1832	678	600	600	120299	12710
1833	677	600	600	120299	12794
1834	677	600	600	120299	12794
1835	678	600	600	120382	12794
1836	677	600	600	120382	12875
1837	677	600	600	120382	12875
1838	677	600	600	120473	12875
1839	678	600	600	120473	12953
1840	677	600	600	120473	12953
1841	678	600	600	120473	12953
1842	678	600	600	120561	13038
1843	678	600	600	120561	13038
1844	678	600	600	120561	13038
1845	678	600	600	120640	13130
1846	678	600	600	120640	13130
1847	678	600	600	120640	13130
1848	678	600	600	120727	13213
1849	678	600	600	120727	13213
1850	678	600	600	120727	13213
1851	678	600	600	120817	13293
1852	678	600	600	120817	13293
1853	678	600	600	120817	13293
1854	677	600	600	120905	13382
1855	678	600	600	120905	13382
1856	678	600	600	120905	13382
1857	677	600	600	120988	13467
1858	677	600	600	120988	13467
1859	678	600	600	120988	13467
1860	678	600	600	121071	13548
1861	678	600	600	121071	13548
1862	677	600	600	121071	13548
1863	678	600	600	121161	13622
1864	677	600	600	121161	13622
1865	678	600	600	121161	13622
1866	678	600	600	121248	13699
1867	678	600	600	121248	13699
1868	678	600	600	121248	13699
1869	677	600	600	121326	13783
1870	678	600	600	121326	13783
1871	677	600	600	121326	13783
1872	678	600	600	121406	13864
1873	678	600	600	121406	13864
1874	678	600	600	121406	13864
1875	677	600	600	121487	13942
1876	678	600	600	121487	13942
1877	677	600	600	121487	13942
1878	678	600	600	121572	14026
1879	678	600	600	121572	14026
1880	678	600	600	121572	14026
1881	677	600	600	121650	14113
1882	678	600	600	121650	14113
1883	678	600	600	121650	14113
1884	677	600	600	121724	14200
1885	678	600	600	121724	14200
1886	678	600	600	121724	14200
1887	677	600	600	121811	14275
1888	678	600	600	121811	14275
1889	677	600	600	121811	14275
1890	678	600	600	121897	14360
1891	678	600	600	121897	14360
1892	678	600	600	121897	14360
1893	678	600	600	121978	14446
1894	678	600	600	121978	14446
1895	678	600	600	121978	14446
1896	677	600	600	122061	14533
1897	678	600	600	122061	14533
1898	678	600	600	122061	14533
1899	677	600	600	122150	14614
1900	678	600	600	122150	14614
1901	678	600	600	122150	14614
1902	678	600	600	122235	14689
1903	678	600	600	122235	14689
1904	678	600	600	122235	14689
1905	678	600	600	122318	14767
1906	678	600	600	122318	14767
1907	678	600	600	122318	14767
1908	677	600	600	122394	14767
1909	678	600	600	122394	14841
1910	678	600	600	122394	14841
1911	677	600	600	122474	14841
1912	677	600	600	122474	14912
1913	678	600	600	122474	14912
1914	678	600	600	122552	14912
1915	677	600	600	122552	14977
1916	679	600	600	122552	14977
1917	678	600	600	122633	14977
1918	678	600	600	122633	15056
1919	677	600	600	122633	15056
1920	678	600	600	122705	15056
1921	677	600	600	122705	15137
1922	678	600	600	122705	15137
1923	679	600	600	122788	15137
1924	678	600	600	122788	15217
1925	678	600	600	122788	15217
1926	678	600	600	122873	15217
1927	678	600	600	122873	15291
1928	677	600	600	122873	15291
1929	678	600	600	122958	15291
1930	678	600	600	122958	15363
1931	678	600	600	122958	15363
1932	678	600	600	123036	15363
1933	678	600	600	123036	15449
1934	678	600	600	123036	15449
1935	678	600	600	123113	15449
1936	678	600	600	123113	15529
1937	678	600	600	123113	15529
1938	678	600	600	123200	15529
1939	678	600	600	123200	15607
1940	678	600	600	123200	15607
1941	678	600	600	123282	15607
1942	677	600	600	123282	15682
1943	677	600	600	123282	15682
1944	678	600	600	123359	15682
1945	678	600	600	123359	15759
1946	678	600	600	123359	15759
1947	678	600	600	123436	15759
1948	679	600	600	123436	15842
1949	678	600	600	123436	15842
1950	677	600	600	123514	15842
1951	678	600	600	123514	15916
1952	678	600	600	123514	15916
1953	678	600	600	123598	15916
1954	678	600	600	123598	15988
1955	678	600	600	123598	15988
1956	677	600	600	123675	15988
1957	678	600	600	123675	16064
1958	678	600	600	123675	16064
1959	678	600	600	123675	16064
1960	678	600	600	123745	16149
1961	678	600	600	123745	16149
1962	678	600	600	123745	16149
1963	677	600	600	123823	16234
1964	677	600	600	123823	16234
1965	677	600	600	123823	16234
1966	678	600	600	123904	16311
1967	677	600	600	123904	16311
1968	677	600	600	123904	16311
1969	678	600	600	123985	16393
1970	677	600	600	123985	16393
1971	678	600	600	123985	16393
1972	678	600	600	124058	16479
1973	678	600	600	124058	16479
1974	677	600	600	124058	16479
1975	678	600	600	124136	16564
1976	677	600	600	124136	16564
1977	677	600	600	124136	16564
1978	678	600	600	124218	16642
1979	678	600	600	124218	16642
1980	678	600	600	124218	16642
1981	678	600	600	124298	16716
1982	677	600	600	124298	16716
1983	678	600	600	124298	16716
1984	677	600	600	124373	16796
1985	678	600	600	124373	16796
1986	678	600	600	124373	16796
1987	678	600	600	124442	16872
1988	678	600	600	124442	16872
1989	677	600	600	124442	16872
1990	677	600	600	124519	16949
1991	678	600	600	124519	16949
1992	677	600	600	124519	16949
1993	678	600	600	124595	17016
1994	678	600	600	124595	17016
1995	678	600	600	124595	17016
1996	678	600	600	124673	17095
1997	678	600	600	124673	17095
1998	678	600	600	124673	17095
1999	677	600	600	124740	17173
2000	677	600	600	124740	17173
2001	678	600	600	124740	17173
2002	678	600	600	124817	17249
2003	678	600	600	124817	17249
2004	678	600	600	124817	17249
2005	678	600	600	124896	17316
2006	678	600	600	124896	17316
2007	678	600	600	124896	17316
2008	678	600	600	124974	17382
2009	677	600	600	124974	17382
2010	677	600	600	124974	17382
2011	677	600	600	125046	17456
2012	677	600	600	125046	17456
2013	677	600	600	125046	17456
2014	678	600	600	125112	17536
2015	677	600	600	125112	17536
2016	677	600	600	125112	17536
2017	678	600	600	125187	17615
2018	678	600	600	125187	17615
2019	677	600	600	125187	17615
2020	677	600	600	125269	17685
2021	678	600	600	125269	17685
2022	678	600	600	125269	17685
2023	678	600	600	125349	17760
2024	677	600	600	125349	17760
2025	677	600	600	125349	17760
2026	678	600	600	125416	17760
2027	678	600	600	125416	17833
2028	677	600	600	125416	17833
2029	678	600	600	125488	17833
2030	678	600	600	125488	17913
2031	678	600	600	125488	17913
2032	677	600	600	125559	17913
2033	677	600	600	125559	17982
2034	678	600	600	125559	17982
2035	678	600	600	125636	17982
2036	677	600	600	125636	18049
2037	678	600	600	125636	18049
2038	677	600	600	125706	18049
2039	678	600	600	125706	18124
2040	677	600	600	125706	18124
2041	677	600	600	125771	18124
2042	677	600	600	125771	18205
2043	677	600	600	125771	18205
2044	678	600	600	125843	18205
2045	678	600	600	125843	18285
2046	678	600	600	125843	18285
2047	678	600	600	125925	18285
2048	678	600	600	125925	18356
2049	677	600	600	125925	18356
2050	678	600	600	126005	18356
2051	678	600	600	126005	18431
2052	678	600	600	126005	18431
2053	677	600	600	126076	18431
2054	677	600	600	126076	18511
2055	678	600	600	126076	18511
2056	678	600	600	126147	18511
2057	677	600	600	126147	18592
2058	678	600	600	126147	18592
2059	678	600	600	126223	18592
2060	677	600	600	126223	18668
2061	678	600	600	126223	18668
2062	678	600	600	126299	18668
2063	677	600	600	126299	18740
2064	677	600	600	126299	18740
2065	678	600	600	126371	18740
2066	678	600	600	126371	18815
2067	678	600	600	126371	18815
2068	678	600	600	126437	18815
2069	678	600	600	126437	18891
2070	678	600	600	126437	18891
2071	678	600	600	126501	18891
2072	678	600	600	126501	18967
2073	677	600	600	126501	18967
2074	678	600	600	126573	18967
2075	677	600	600	126573	19033
2076	678	600	600	126573	19033
2077	678	600	600	126573	19033
2078	678	600	600	126645	19104
2079	678	600	600	126645	19104
2080	678	600	600	126645	19104
2081	677	600	600	126716	19180
2082	677	600	600	126716	19180
2083	677	600	600	126716	19180
2084	678	600	600	126780	19261
2085	678	600	600	126780	19261
2086	678	600	600	126780	19261
2087	678	600	600	126849	19335
2088	678	600	600	126849	19335
2089	677	600	600	126849	19335
2090	678	600	600	126924	19405
2091	678	600	600	126924	19405
2092	677	600	600	126924	19405
2093	676	600	600	127003	19478
2094	678	600	600	127003	19478
2095	677	600	600	127003	19478
2096	678	600	600	127075	19561
2097	678	600	600	127075	19561
2098	677	600	600	127075	19561
2099	677	600	600	127137	19639
2100	678	600	600	127137	19639
2101	677	600	600	127137	19639
2102	678	600	600	127202	19709
2103	678	600	600	127202	19709
2104	678	600	600	127202	19709
2105	678	600	600	127281	19778
2106	678	600	600	127281	19778
2107	678	600	600	127281	19778
2108	677	600	600	127354	19849
2109	678	600	600	127354	19849
2110	678	600	600	127354	19849
2111	677	600	600	127424	19925
2112	678	600	600	127424	19925
2113	678	600	600	127424	19925
2114	678	600	600	127486	19995
2115	678	600	600	127486	19995
2116	678	600	600	127486	19995
2117	678	600	600	127553	20064
2118	678	600	600	127553	20064
2119	678	600	600	127553	20064
2120	678	600	600	127622	20134
2121	677	600	600	127622	20134
2122	677	600	600	127622	20134
2123	678	600	600	127696	20213
2124	677	600	600	127696	20213
2125	678	600	600	127696	20213
2126	678	600	600	127763	20293
2127	678	600	600	127763	20293
2128	678	600	600	127763	20293
2129	678	600	600	127823	20370
2130	678	600	600	127823	20370
2131	677	600	600	127823	20370
2132	678	600	600	127890	20441
2133	677	600	600	127890	20441
2134	678	600	600	127890	20441
2135	677	600	600	127966	20518
2136	678	600	600	127966	20518
2137	677	600	600	127966	20518
2138	678	600	600	128039	20597
2139	677	600	600	128039	20597
2140	678	600	600	128039	20597
2141	677	600	600	128106	20676
2142	678	600	600	128106	20676
2143	678	600	600	128106	20676
2144	678	600	600	128169	20748
2145	677	600	600	128169	20748
2146	678	600	600	128169	20748
2147	678	600	600	128238	20818
2148	677	600	600	128238	20818
2149	678	600	600	128238	20818
2150	677	600	600	128312	20818
2151	678	600	600	128312	20891
2152	678	600	600	128312	20891
2153	678	600	600	128384	20891
2154	678	600	600	128384	20963
2155	678	600	600	128384	20963
2156	677	600	600	128451	20963
2157	677	600	600	128451	21036
2158	678	600	600	128451	21036
2159	678	600	600	128512	21036
2160	678	600	600	128512	21099
2161	678	600	600	128512	21099
2162	677	600	600	128576	21099
2163	677	600	600	128576	21172
2164	678	600	600	128576	21172
2165	678	600	600	128645	21172
2166	677	600	600	128645	21247
2167	678	600	600	128645	21247
2168	678	600	600	128711	21247
2169	677	600	600	128711	21328
2170	678	600	600	128711	21328
2171	677	600	600	128775	21328
2172	677	600	600	128775	21402
2173	678	600	600	128775	21402
2174	678	600	600	128828	21402
2175	678	600	600	128828	21470
2176	678	600	600	128828	21470
2177	677	600	600	128888	21470
2178	678	600	600	128888	21542
2179	678	600	600	128888	21542
2180	678	600	600	128957	21542
2181	678	600	600	128957	21621
2182	678	600	600	128957	21621
2183	678	600	600	129028	21621
2184	677	600	600	129028	21694
2185	678	600	600	129028	21694
2186	678	600	600	129097	21694
2187	677	600	600	129097	21757
2188	678	600	600	129097	21757
2189	678	600	600	129156	21757
2190	677	600	600	129156	21821
2191	678	600	600	129156	21821
2192	677	600	600	129217	21821
2193	677	600	600	129217	21889
2194	678	600	600	129217	21889
2195	678	600	600	129217	21889
2196	677	600	600	129286	21960
2197	677	600	600	129286	21960
2198	677	600	600	129286	21960
2199	678	600	600	129359	22031
2200	677	600	600	129359	22031
2201	678	600	600	129359	22031
2202	678	600	600	129430	22092
2203	678	600	600	129430	22092
2204	678	600	600	129430	22092
2205	678	600	600	129488	22153
2206	678	600	600	129488	22153
2207	678	600	600	129488	22153
2208	677	600	600	129544	22221
2209	678	600	600	129544	22221
2210	677	600	600	129544	22221
2211	678	600	600	129607	22295
2212	678	600	600	129607	22295
2213	678	600	600	129607	22295
2214	677	600	600	129673	22366
2215	677	600	600	129673	22366
2216	677	600	600	129673	22366
2217	678	600	600	129739	22428
2218	678	600	600	129739	22428
2219	678	600	600	129739	22428
2220	677	600	600	129797	22490
2221	678	600	600	129797	22490
2222	678	600	600	129797	22490
2223	677	600	600	129850	22558
2224	678	600	600	129850	22558
2225	678	600	600	129850	22558
2226	678	600	600	129907	22630
2227	678	600	600	129907	22630
2228	678	600	600	129907	22630
2229	678	600	600	129976	22703
2230	678	600	600	129976	22703
2231	677	600	600	129976	22703
2232	678	600	600	130045	22770
2233	678	600	600	130045	22770
2234	678	600	600	130045	22770
2235	678	600	600	130112	22832
2236	677	600	600	130112	22832
2237	678	600	600	130112	22832
2238	678	600	600	130168	22898
2239	678	600	600	130168	22898
2240	678	600	600	130168	22898
2241	677	600	600	130225	22966
2242	677	600	600	130225	22966
2243	678	600	600	130225	22966
2244	678	600	600	130291	23032
2245	678	600	600	130291	23032
2246	677	600	600	130291	23032
2247	677	600	600	130360	23097
2248	678	600	600	130360	23097
2249	677	600	600	130360	23097
2250	677	600	600	130425	23151
2251	678	600	600	130425	23151
2252	678	600	600	130425	23151
2253	678	600	600	130488	23216
2254	678	600	600	130488	23216
2255	678	600	600	130488	23216
2256	678	600	600	130542	23285
2257	677	600	600	130542	23285
2258	678	600	600	130542	23285
2259	678	600	600	130596	23360
2260	678	600	600	130596	23360
2261	677	600	600	130596	23360
2262	677	600	600	130655	23430
2263	677	600	600	130655	23430
2264	677	600	600	130655	23430
2265	677	600	600	130717	23492
2266	677	600	600	130717	23492
2267	678	600	600	130717	23492
2268	677	600	600	130775	23492
2269	677	600	600	130775	23556
2270	677	600	600	130775	23556
2271	677	600	600	130832	23556
2272	677	600	600	130832	23635
2273	678	600	600	130832	23635
2274	678	600	600	130881	23635
2275	677	600	600	130881	23709
2276	678	600	600	130881	23709
2277	677	600	600	130941	23709
2278	677	600	600	130941	23780
2279	678	600	600	130941	23780
2280	677	600	600	131006	23780
2281	678	600	600	131006	23836
2282	678	600	600	131006	23836
2283	678	600	600	131072	23836
2284	678	600	600	131072	23900
2285	677	600	600	131072	23900
2286	678	600	600	131137	23900
2287	678	600	600	131137	23963
2288	678	600	600	131137	23963
2289	677	600	600	131193	23963
2290	677	600	600	131193	24035
2291	678	600	600	131193	24035
2292	677	600	600	131244	24035
2293	677	600	600	131244	24096
2294	678	600	600	131244	24096
2295	677	600	600	131301	24096
2296	678	600	600	131301	24154
2297	677	600	600	131301	24154
2298	678	600	600	131370	24154
2299	677	600	600	131370	24214
2300	678	600	600	131370	24214
2301	677	600	600	131430	24214
2302	678	600	600	131430	24287
2303	678	600	600	131430	24287
2304	678	600	600	131490	24287
2305	677	600	600	131490	24359
2306	678	600	600	131490	24359
2307	677	600	600	131537	24359
2308	678	600	600	131537	24429
2309	678	600	600	131537	24429
2310	678	600	600	131586	24429
2311	678	600	600	131586	24488
2312	678	600	600	131586	24488
2313	677	600	600	131586	24488
2314	678	600	600	131643	24549
2315	678	600	600	131643	24549
2316	678	600	600	131643	24549
2317	677	600	600	131699	24617
2318	678	600	600	131699	24617
2319	678	600	600	131699	24617
2320	678	600	600	131762	24688
2321	677	600	600	131762	24688
2322	678	600	600	131762	24688
2323	677	600	600	131819	24760
2324	677	600	600	131819	24760
2325	678	600	600	131819	24760
2326	677	600	600	131872	24825
2327	678	600	600	131872	24825
2328	677	600	600	131872	24825
2329	678	600	600	131918	24886
2330	677	600	600	131918	24886
2331	677	600	600	131918	24886
2332	678	600	600	131973	24947
2333	678	600	600	131973	24947
2334	678	600	600	131973	24947
2335	678	600	600	132037	25012
2336	678	600	600	132037	25012
2337	678	600	600	132037	25012
2338	677	600	600	132098	25075
2339	677	600	600	132098	25075
2340	678	600	600	132098	25075
2341	677	600	600	132160	25135
2342	678	600	600	132160	25135
2343	678	600	600	132160	25135
2344	677	600	600	132211	25186
2345	678	600	600	132211	25186
2346	678	600	600	132211	25186
2347	677	600	600	132262	25246
2348	677	600	600	132262	25246
2349	677	600	600	132262	25246
2350	678	600	600	132320	25313
2351	678	600	600	132320	25313
2352	678	600	600	132320	25313
2353	677	600	600	132382	25383
2354	677	600	600	132382	25383
2355	677	600	600	132382	25383
2356	678	600	600	132444	25450
2357	678	600	600	132444	25450
2358	678	600	600	132444	25450
2359	678	600	600	132504	25511
2360	678	600	600	132504	25511
2361	678	600	600	132504	25511
2362	677	600	600	132555	25571
2363	677	600	600	132555	25571
2364	677	600	600	132555	25571
2365	678	600	600	132600	25636
2366	678	600	600	132600	25636
2367	678	600	600	132600	25636
2368	678	600	600	132649	25711
2369	678	600	600	132649	25711
2370	678	600	600	132649	25711
2371	677	600	600	132703	25781
2372	678	600	600	132703	25781
2373	678	600	600	132703	25781
2374	678	600	600	132756	25841
2375	678	600	600	132756	25841
2376	677	600	600	132756	25841
2377	677	600	600	132805	25897
2378	677	600	600	132805	25897
2379	677	600	600	132805	25897
2380	678	600	600	132855	25961
2381	678	600	600	132855	25961
2382	677	600	600	132855	25961
2383	677	600	600	132896	26024
2384	677	600	600	132896	26024
2385	677	600	600	132896	26024
2386	678	600	600	132937	26024
2387	677	600	600	132937	26094
2388	677	600	600	132937	26094
2389	678	600	600	132987	26094
2390	678	600	600	132987	26154
2391	678	600	600	132987	26154
2392	677	600	600	133045	26154
2393	678	600	600	133045	26212
2394	678	600	600	133045	26212
2395	677	600	600	133106	26212
2396	677	600	600	133106	26273
2397	677	600	600	133106	26273
2398	677	600	600	133167	26273
2399	678	600	600	133167	26343
2400	678	600	600	133167	26343
2401	677	600	600	133221	26343
2402	677	600	600	133221	26415
2403	677	600	600	133221	26415
2404	677	600	600	133266	26415
2405	677	600	600	133266	26486
2406	677	600	600	133266	26486
2407	677	600	600	133313	26486
2408	678	600	600	133313	26544
2409	678	600	600	133313	26544
2410	677	600	600	133367	26544
2411	677	600	600	133367	26610
2412	677	600	600	133367	26610
2413	677	600	600	133430	26610
2414	677	600	600	133430	26682
2415	677	600	600	133430	26682
2416	677	600	600	133484	26682
2417	678	600	600	133484	26754
2418	678	600	600	133484	26754
2419	678	600	600	133537	26754
2420	678	600	600	133537	26827
2421	678	600	600	133537	26827
2422	677	600	600	133577	26827
2423	678	600	600	133577	26890
2424	678	600	600	133577	26890
2425	678	600	600	133617	26890
2426	678	600	600	133617	26952
2427	677	600	600	133617	26952
2428	678	600	600	133663	26952
2429	678	600	600	133663	27016
2430	677	600	600	133663	27016
2431	678	600	600	133663	27016
2432	678	600	600	133711	27081
2433	677	600	600	133711	27081
2434	678	600	600	133711	27081
2435	677	600	600	133765	27143
2436	678	600	600	133765	27143
2437	678	600	600	133765	27143
2438	677	600	600	133820	27200
2439	677	600	600	133820	27200
2440	677	600	600	133820	27200
2441	677	600	600	133866	27252
2442	677	600	600	133866	27252
2443	677	600	600	133866	27252
2444	678	600	600	133907	27318
2445	677	600	600	133907	27318
2446	677	600	600	133907	27318
2447	678	600	600	133943	27385
2448	677	600	600	133943	27385
2449	678	600	600	133943	27385
2450	678	600	600	133984	27458
2451	678	600	600	133984	27458
2452	678	600	600	133984	27458
2453	677	600	600	134035	27523
2454	678	600	600	134035	27523
2455	678	600	600	134035	27523
2456	678	600	600	134094	27582
2457	678	600	600	134094	27582
2458	677	600	600	134094	27582
2459	678	600	600	134150	27644
2460	678	600	600	134150	27644
2461	678	600	600	134150	27644
2462	678	600	600	134207	27717
2463	678	600	600	134207	27717
2464	678	600	600	134207	27717
2465	677	600	600	134253	27787
2466	677	600	600	134253	27787
2467	678	600	600	134253	27787
2468	678	600	600	134297	27854
2469	678	600	600	134297	27854
2470	677	600	600	134297	27854
2471	678	600	600	134347	27909
2472	677	600	600	134347	27909
2473	678	600	600	134347	27909
2474	677	600	600	134405	27968
2475	677	600	600	134405	27968
2476	678	600	600	134405	27968
2477	678	600	600	134464	28027
2478	678	600	600	134464	28027
2479	678	600	600	134464	28027
2480	678	600	600	134520	28092
2481	678	600	600	134520	28092
2482	678	600	600	134520	28092
2483	678	600	600	134573	28160
2484	677	600	600	134573	28160
2485	677	600	600	134573	28160
2486	677	600	600	134616	28216
2487	678	600	600	134616	28216
2488	677	600	600	134616	28216
2489	677	600	600	134656	28270
2490	678	600	600	134656	28270
2491	678	600	600	134656	28270
2492	677	600	600	134702	28331
2493	678	600	600	134702	28331
2494	677	600	600	134702	28331
2495	678	600	600	134752	28399
2496	678	600	600	134752	28399
2497	678	600	600	134752	28399
2498	678	600	600	134804	28467
2499	678	600	600	134804	28467
2500	677	600	600	134804	28467
2501	677	600	600	134852	28467
2502	678	600	600	134852	28536
2503	678	600	600	134852	28536
2504	677	600	600	134902	28536
2505	678	600	600	134902	28595
2506	678	600	600	134902	28595
2507	677	600	600	134941	28595
2508	678	600	600	134941	28661
2509	677	600	600	134941	28661
2510	677	600	600	134978	28661
2511	677	600	600	134978	28732
2512	678	600	600	134978	28732
2513	677	600	600	135026	28732
2514	678	600	600	135026	28805
2515	677	600	600	135026	28805
2516	678	600	600	135082	28805
2517	677	600	600	135082	28873
2518	677	600	600	135082	28873
2519	677	600	600	135138	28873
2520	677	600	600	135138	28931
2521	678	600	600	135138	28931
2522	678	600	600	135193	28931
2523	678	600	600	135193	28987
2524	678	600	600	135193	28987
2525	678	600	600	135243	28987
2526	678	600	600	135243	29048
2527	678	600	600	135243	29048
2528	677	600	600	135283	29048
2529	677	600	600	135283	29110
2530	678	600	600	135283	29110
2531	677	600	600	135319	29110
2532	677	600	600	135319	29171
2533	678	600	600	135319	29171
2534	677	600	600	135358	29171
2535	678	600	600	135358	29231
2536	678	600	600	135358	29231
2537	678	600	600	135406	29231
2538	678	600	600	135406	29278
2539	677	600	600	135406	29278
2540	677	600	600	135462	29278
2541	678	600	600	135462	29331
2542	677	600	600	135462	29331
2543	678	600	600	135462	29331
2544	677	600	600	135514	29391
2545	678	600	600	135514	29391
2546	678	600	600	135514	29391
2547	677	600	600	135565	29453
2548	678	600	600	135565	29453
2549	678	600	600	135565	29453
2550	677	600	600	135608	29518
2551	677	600	600	135608	29518
2552	678	600	600	135608	29518
2553	678	600	600	135642	29574
2554	678	600	600	135642	29574
2555	678	600	600	135642	29574
2556	678	600	600	135682	29624
2557	678	600	600	135682	29624
2558	678	600	600	135682	29624
2559	677	600	600	135732	29679
2560	678	600	600	135732	29679
2561	678	600	600	135732	29679
2562	678	600	600	135781	29738
2563	678	600	600	135781	29738
2564	678	600	600	135781	29738
2565	677	600	600	135833	29805
2566	678	600	600	135833	29805
2567	678	600	600	135833	29805
2568	677	600	600	135884	29868
2569	678	600	600	135884	29868
2570	677	600	600	135884	29868
2571	678	600	600	135928	29927
2572	678	600	600	135928	29927
2573	677	600	600	135928	29927
2574	677	600	600	135961	29974
2575	677	600	600	135961	29974
2576	678	600	600	135961	29974
2577	678	600	600	135987	30027
2578	678	600	600	135987	30027
2579	678	600	600	135987	30027
2580	677	600	600	136020	30082
2581	678	600	600	136020	30082
2582	677	600	600	136020	30082
2583	677	600	600	136062	30139
2584	677	600	600	136062	30139
2585	677	600	600	136062	30139
2586	677	600	600	136115	30197
2587	677	600	600	136115	30197
2588	678	600	600	136115	30197
2589	677	600	600	136167	30245
2590	677	600	600	136167	30245
2591	677	600	600	136167	30245
2592	677	600	600	136218	30286
2593	678	600	600	136218	30286
2594	677	600	600	136218	30286
2595	677	600	600	136263	30334
2596	677	600	600	136263	30334
2597	677	600	600	136263	30334
2598	678	600	600	136296	30392
2599	677	600	600	136296	30392
2600	677	600	600	136296	30392
2601	677	600	600	136326	30456
2602	677	600	600	136326	30456
2603	678	600	600	136326	30456
2604	678	600	600	136367	30519
2605	678	600	600	136367	30519
2606	677	600	600	136367	30519
2607	677	600	600	136413	30583
2608	677	600	600	136413	30583
2609	677	600	600	136413	30583
2610	678	600	600	136464	30632
2611	677	600	600	136464	30632
2612	676	600	600	136464	30632
2613	674	600	600	136513	30683
2614	674	600	600	136513	30683
2615	674	600	600	136513	30683
2616	673	600	600	136564	30683
2617	673	600	600	136564	30743
2618	674	600	600	136564	30743
2619	673	600	600	136611	30743
2620	674	600	600	136611	30803
2621	674	600	600	136611	30803
2622	674	600	600	136647	30803
2623	674	600	600	136647	30863
2624	674	600	600	136647	30863
2625	673	600	600	136675	30863
2626	673	600	600	136675	30921
2627	674	600	600	136675	30921
2628	674	600	600	136709	30921
2629	674	600	600	136709	30973
2630	674	600	600	136709	30973
2631	674	600	600	136751	30973
2632	674	600	600	136751	31023
2633	674	600	600	136751	31023
2634	674	600	600	136798	31023
2635	674	600	600	136798	31077
2636	673	600	600	136798	31077
2637	674	600	600	136846	31077
2638	674	600	600	136846	31138
2639	674	600	600	136846	31138
2640	675	600	600	136891	31138
2641	674	600	600	136891	31196
2642	673	600	600	136891	31196
2643	674	600	600	136933	31196
2644	673	600	600	136933	31253
2645	674	600	600	136933	31253
2646	674	600	600	136966	31253
2647	673	600	600	136966	31297
2648	675	600	600	136966	31297
2649	673	600	600	136996	31297
2650	674	600	600	136996	31339
2651	674	600	600	136996	31339
2652	673	600	600	137027	31339
2653	674	600	600	137027	31393
2654	674	600	600	137027	31393
2655	674	600	600	137069	31393
2656	674	600	600	137069	31451
2657	674	600	600	137069	31451
2658	674	600	600	137115	31451
2659	673	600	600	137115	31514
2660	674	600	600	137115	31514
2661	674	600	600	137115	31514
2662	674	600	600	137162	31574
2663	674	600	600	137162	31574
2664	674	600	600	137162	31574
2665	674	600	600	137211	31627
2666	674	600	600	137211	31627
2667	673	600	600	137211	31627
2668	674	600	600	137261	31675
2669	674	600	600	137261	31675
2670	674	600	600	137261	31675
2671	674	600	600	137300	31727
2672	674	600	600	137300	31727
2673	674	600	600	137300	31727
2674	674	600	600	137332	31784
2675	674	600	600	137332	31784
2676	674	600	600	137332	31784
2677	674	600	600	137362	31849
2678	673	600	600	137362	31849
2679	674	600	600	137362	31849
2680	674	600	600	137399	31907
2681	674	600	600	137399	31907
2682	674	600	600	137399	31907
2683	674	600	600	137443	31959
2684	673	600	600	137443	31959
2685	674	600	600	137443	31959
2686	673	600	600	137496	31997
2687	674	600	600	137496	31997
2688	674	600	600	137496	31997
2689	674	600	600	137544	32040
2690	674	600	600	137544	32040
2691	674	600	600	137544	32040
2692	674	600	600	137587	32087
2693	674	600	600	137587	32087
2694	674	600	600	137587	32087
2695	674	600	600	137625	32134
2696	674	600	600	137625	32134
2697	675	600	600	137625	32134
2698	673	600	600	137650	32184
2699	673	600	600	137650	32184
2700	674	600	600	137650	32184
2701	674	600	600	137665	32237
2702	674	600	600	137665	32237
2703	674	600	600	137665	32237
2704	674	600	600	137683	32282
2705	674	600	600	137683	32282
2706	673	600	600	137683	32282
2707	674	600	600	137699	32324
2708	674	600	600	137699	32324
2709	674	600	600	137699	32324
2710	673	600	600	137717	32365
2711	674	600	600	137717	32365
2712	673	600	600	137717	32365
2713	674	600	600	137743	32413
2714	674	600	600	137743	32413
2715	673	600	600	137743	32413
2716	674	600	600	137772	32472
2717	674	600	600	137772	32472
2718	674	600	600	137772	32472
2719	674	600	600	137805	32535
2720	674	600	600	137805	32535
2721	673	600	600	137805	32535
2722	674	600	600	137842	32598
2723	674	600	600	137842	32598
2724	674	600	600	137842	32598
2725	674	600	600	137880	32652
2726	674	600	600	137880	32652
2727	673	600	600	137880	32652
2728	675	600	600	137917	32699
2729	673	600	600	137917	32699
2730	674	600	600	137917	32699
2731	674	600	600	137951	32753
2732	674	600	600	137951	32753
2733	674	600	600	137951	32753
2734	674	600	600	137979	32753
2735	674	600	600	137979	32810
2736	674	600	600	137979	32810
2737	673	600	600	138000	32810
2738	674	600	600	138000	32870
2739	674	600	600	138000	32870
2740	674	600	600	138014	32870
2741	674	600	600	138014	32933
2742	674	600	600	138014	32933
2743	673	600	600	138034	32933
2744	673	600	600	138034	32990
2745	674	600	600	138034	32990
2746	675	600	600	138061	32990
2747	673	600	600	138061	33037
2748	674	600	600	138061	33037
2749	674	600	600	138098	33037
2750	675	600	600	138098	33083
2751	674	600	600	138098	33083
2752	673	600	600	138144	33083
2753	674	600	600	138144	33134
2754	673	600	600	138144	33134
2755	674	600	600	138191	33134
2756	673	600	600	138191	33192
2757	675	600	600	138191	33192
2758	673	600	600	138234	33192
2759	674	600	600	138234	33245
2760	674	600	600	138234	33245
2761	674	600	600	138278	33245
2762	674	600	600	138278	33296
2763	674	600	600	138278	33296
2764	674	600	600	138315	33296
2765	674	600	600	138315	33341
2766	673	600	600	138315	33341
2767	674	600	600	138339	33341
2768	674	600	600	138339	33380
2769	674	600	600	138339	33380
2770	674	600	600	138359	33380
2771	674	600	600	138359	33428
2772	674	600	600	138359	33428
2773	674	600	600	138386	33428
2774	674	600	600	138386	33484
2775	674	600	600	138386	33484
2776	674	600	600	138415	33484
2777	674	600	600	138415	33542
2778	674	600	600	138415	33542
2779	674	600	600	138450	33542
2780	674	600	600	138450	33606
2781	674	600	600	138450	33606
2782	673	600	600	138490	33606
2783	673	600	600	138490	33659
2784	675	600	600	138490	33659
2785	674	600	600	138490	33659
2786	673	600	600	138535	33705
2787	674	600	600	138535	33705
2788	673	600	600	138535	33705
2789	674	600	600	138574	33752
2790	674	600	600	138574	33752
2791	674	600	600	138574	33752
2792	674	600	600	138613	33806
2793	674	600	600	138613	33806
2794	674	600	600	138613	33806
2795	673	600	600	138649	33870
2796	673	600	600	138649	33870
2797	675	600	600	138649	33870
2798	674	600	600	138676	33930
2799	674	600	600	138676	33930
2800	674	600	600	138676	33930
2801	674	600	600	138693	33987
2802	674	600	600	138693	33987
2803	673	600	600	138693	33987
2804	674	600	600	138705	34030
2805	674	600	600	138705	34030
2806	674	600	600	138705	34030
2807	673	600	600	138726	34066
2808	673	600	600	138726	34066
2809	674	600	600	138726	34066
2810	673	600	600	138750	34109
2811	674	600	600	138750	34109
2812	674	600	600	138750	34109
2813	673	600	600	138784	34156
2814	674	600	600	138784	34156
2815	674	600	600	138784	34156
2816	674	600	600	138822	34202
2817	674	600	600	138822	34202
2818	674	600	600	138822	34202
2819	674	600	600	138863	34259
2820	673	600	600	138863	34259
2821	674	600	600	138863	34259
2822	674	600	600	138902	34309
2823	674	600	600	138902	34309
2824	674	600	600	138902	34309
2825	674	600	600	138937	34350
2826	674	600	600	138937	34350
2827	674	600	600	138937	34350
2828	673	600	600	138975	34386
2829	674	600	600	138975	34386
2830	673	600	600	138975	34386
2831	673	600	600	139007	34429
2832	673	600	600	139007	34429
2833	674	600	600	139007	34429
2834	674	600	600	139029	34480
2835	674	600	600	139029	34480
2836	673	600	600	139029	34480
2837	674	600	600	139049	34537
2838	673	600	600	139049	34537
2839	674	600	600	139049	34537
2840	674	600	600	139075	34594
2841	674	600	600	139075	34594
2842	673	600	600	139075	34594
2843	674	600	600	139107	34651
2844	674	600	600	139107	34651
2845	674	600	600	139107	34651
2846	674	600	600	139147	34698
2847	673	600	600	139147	34698
2848	674	600	600	139147	34698
2849	674	600	600	139191	34737
2850	674	600	600	139191	34737
2851	674	600	600	139191	34737
2852	674	600	600	139237	34737
2853	674	600	600	139237	34786
2854	674	600	600	139237	34786
2855	674	600	600	139280	34786
2856	673	600	600	139280	34842
2857	674	600	600	139280	34842
2858	674	600	600	139318	34842
2859	674	600	600	139318	34902
2860	674	600	600	139318	34902
2861	674	600	600	139349	34902
2862	674	600	600	139349	34964
2863	674	600	600	139349	34964
2864	673	600	600	139372	34964
2865	674	600	600	139372	35021
2866	674	600	600	139372	35021
2867	673	600	600	139390	35021
2868	674	600	600	139390	35069
2869	674	600	600	139390	35069
2870	674	600	600	139415	35069
2871	673	600	600	139415	35115
2872	674	600	600	139415	35115
2873	674	600	600	139445	35115
2874	674	600	600	139445	35160
2875	674	600	600	139445	35160
2876	674	600	600	139480	35160
2877	673	600	600	139480	35208
2878	675	600	600	139480	35208
2879	674	600	600	139522	35208
2880	674	600	600	139522	35258
2881	675	600	600	139522	35258
2882	675	600	600	139568	35258
2883	674	600	600	139568	35307
2884	674	600	600	139568	35307
2885	673	600	600	139606	35307
2886	674	600	600	139606	35354
2887	674	600	600	139606	35354
2888	674	600	600	139643	35354
2889	674	600	600	139643	35390
2890	674	600	600	139643	35390
2891	673	600	600	139677	35390
2892	674	600	600	139677	35425
2893	674	600	600	139677	35425
2894	674	600	600	139699	35425
2895	674	600	600	139699	35469
2896	674	600	600	139699	35469
2897	674	600	600	139714	35469
2898	673	600	600	139714	35523
2899	673	600	600	139714	35523
2900	674	600	600	139728	35523
2901	674	600	600	139728	35580
2902	674	600	600	139728	35580
2903	674	600	600	139728	35580
2904	674	600	600	139743	35640
2905	674	600	600	139743	35640
2906	673	600	600	139743	35640
2907	673	600	600	139763	35691
2908	674	600	600	139763	35691
2909	673	600	600	139763	35691
2910	674	600	600	139790	35734
2911	674	600	600	139790	35734
2912	674	600	600	139790	35734
2913	674	600	600	139821	35775
2914	674	600	600	139821	35775
2915	673	600	600	139821	35775
2916	674	600	600	139854	35822
2917	674	600	600	139854	35822
2918	674	600	600	139854	35822
2919	674	600	600	139892	35873
2920	674	600	600	139892	35873
2921	673	600	600	139892	35873
2922	674	600	600	139929	35935
2923	674	600	600	139929	35935
2924	674	600	600	139929	35935
2925	674	600	600	139965	35992
2926	673	600	600	139965	35992
2927	674	600	600	139965	35992
2928	674	600	600	139996	36045
2929	674	600	600	139996	36045
2930	674	600	600	139996	36045
2931	674	600	600	140019	36085
2932	673	600	600	140019	36085
2933	674	600	600	140019	36085
2934	674	600	600	140037	36122
2935	673	600	600	140037	36122
2936	674	600	600	140037	36122
2937	674	600	600	140051	36166
2938	673	600	600	140051	36166
2939	674	600	600	140051	36166
2940	674	600	600	140060	36213
2941	674	600	600	140060	36213
2942	674	600	600	140060	36213
2943	674	600	600	140071	36262
2944	674	600	600	140071	36262
2945	674	600	600	140071	36262
2946	674	600	600	140091	36316
2947	673	600	600	140091	36316
2948	674	600	600	140091	36316
2949	673	600	600	140118	36362
2950	674	600	600	140118	36362
2951	674	600	600	140118	36362
2952	674	600	600	140146	36400
2953	673	600	600	140146	36400
2954	674	600	600	140146	36400
2955	673	600	600	140179	36431
2956	673	600	600	140179	36431
2957	674	600	600	140179	36431
2958	673	600	600	140215	36468
2959	674	600	600	140215	36468
2960	674	600	600	140215	36468
2961	674	600	600	140252	36511
2962	674	600	600	140252	36511
2963	674	600	600	140252	36511
2964	674	600	600	140284	36560
2965	674	600	600	140284	36560
2966	674	600	600	140284	36560
2967	674	600	600	140315	36612
2968	674	600	600	140315	36612
2969	674	600	600	140315	36612
2970	674	600	600	140343	36662
2971	673	600	600	140343	36662
2972	674	600	600	140343	36662
2973	674	600	600	140363	36662
2974	673	600	600	140363	36710
2975	674	600	600	140363	36710
2976	674	600	600	140374	36710
2977	674	600	600	140374	36747
2978	674	600	600	140374	36747
2979	673	600	600	140384	36747
2980	674	600	600	140384	36780
2981	674	600	600	140384	36780
2982	674	600	600	140393	36780
2983	674	600	600	140393	36823
2984	674	600	600	140393	36823
2985	674	600	600	140405	36823
2986	674	600	600	140405	36874
2987	673	600	600	140405	36874
2988	673	600	600	140420	36874
2989	673	600	600	140420	36926
2990	674	600	600	140420	36926
2991	673	600	600	140436	36926
2992	674	600	600	140436	36978
2993	675	600	600	140436	36978
2994	674	600	600	140456	36978
2995	674	600	600	140456	37030
2996	674	600	600	140456	37030
2997	674	600	600	140482	37030
2998	674	600	600	140482	37075
2999	673	600	600	140482	37075
3000	674	600	600	140517	37075
3001	674	600	600	140517	37111
3002	673	600	600	140517	37111
3003	674	600	600	140553	37111
3004	674	600	600	140553	37144
3005	674	600	600	140553	37144
3006	674	600	600	140592	37144
3007	673	600	600	140592	37181
3008	674	600	600	140592	37181
3009	673	600	600	140626	37181
3010	674	600	600	140626	37219
3011	674	600	600	140626	37219
3012	674	600	600	140658	37219
3013	674	600	600	140658	37263
3014	674	600	600	140658	37263
3015	674	600	600	140687	37263
3016	674	600	600	140687	37308
3017	674	600	600	140687	37308
3018	674	600	600	140713	37308
3019	674	600	600	140713	37353
3020	674	600	600	140713	37353
3021	674	600	600	140713	37353
3022	673	600	600	140733	37396
3023	673	600	600	140733	37396
3024	674	600	600	140733	37396
3025	674	600	600	140746	37430
3026	674	600	600	140746	37430
3027	674	600	600	140746	37430
3028	674	600	600	140758	37457
3029	674	600	600	140758	37457
3030	674	600	600	140758	37457
3031	674	600	600	140775	37490
3032	674	600	600	140775	37490
3033	674	600	600	140775	37490
3034	674	600	600	140792	37538
3035	674	600	600	140792	37538
3036	674	600	600	140792	37538
3037	674	600	600	140811	37588
3038	673	600	600	140811	37588
3039	674	600	600	140811	37588
3040	674	600	600	140834	37636
3041	674	600	600	140834	37636
3042	674	600	600	140834	37636
3043	674	600	600	140857	37689
3044	674	600	600	140857	37689
3045	673	600	600	140857	37689
3046	674	600	600	140888	37735
3047	674	600	600	140888	37735
3048	674	600	600	140888	37735
3049	674	600	600	140920	37770
3050	674	600	600	140920	37770
3051	673	600	600	140920	37770
3052	674	600	600	140951	37799
3053	674	600	600	140951	37799
3054	674	600	600	140951	37799
3055	674	600	600	140974	37831
3056	674	600	600	140974	37831
3057	674	600	600	140974	37831
3058	674	600	600	140993	37868
3059	674	600	600	140993	37868
3060	674	600	600	140993	37868
3061	673	600	600	141012	37912
3062	673	600	600	141012	37912
3063	674	600	600	141012	37912
3064	674	600	600	141030	37962
3065	674	600	600	141030	37962
3066	674	600	600	141030	37962
3067	674	600	600	141043	38011
3068	674	600	600	141043	38011
3069	674	600	600	141043	38011
3070	674	600	600	141052	38058
3071	674	600	600	141052	38058
3072	674	600	600	141052	38058
3073	674	600	600	141053	38098
3074	675	600	600	141053	38098
3075	674	600	600	141053	38098
3076	673	600	600	141055	38126
3077	674	600	600	141055	38126
3078	674	600	600	141055	38126
3079	674	600	600	141058	38153
3080	674	600	600	141058	38153
3081	674	600	600	141058	38153
3082	673	600	600	141062	38189
3083	674	600	600	141062	38189
3084	674	600	600	141062	38189
3085	674	600	600	141066	38231
3086	674	600	600	141066	38231
3087	675	600	600	141066	38231
3088	675	600	600	141071	38273
3089	674	600	600	141071	38273
3090	674	600	600	141071	38273
3091	674	600	600	141076	38319
3092	674	600	600	141076	38319
3093	674	600	600	141076	38319
3094	673	600	600	141084	38319
3095	674	600	600	141084	38370
3096	674	600	600	141084	38370
3097	674	600	600	141093	38370
3098	674	600	600	141093	38410
3099	674	600	600	141093	38410
3100	674	600	600	141105	38410
3101	674	600	600	141105	38443
3102	674	600	600	141105	38443
3103	674	600	600	141121	38443
3104	674	600	600	141121	38466
3105	674	600	600	141121	38466
3106	674	600	600	141137	38466
3107	674	600	600	141137	38494
3108	674	600	600	141137	38494
3109	674	600	600	141160	38494
3110	673	600	600	141160	38529
3111	674	600	600	141160	38529
3112	674	600	600	141188	38529
3113	674	600	600	141188	38570
3114	674	600	600	141188	38570
3115	674	600	600	141219	38570
3116	674	600	600	141219	38620
3117	674	600	600	141219	38620
3118	673	600	600	141250	38620
3119	674	600	600	141250	38670
3120	673	600	600	141250	38670
3121	674	600	600	141285	38670
3122	674	600	600	141285	38719
3123	673	600	600	141285	38719
3124	674	600	600	141314	38719
3125	674	600	600	141314	38764
3126	674	600	600	141314	38764
3127	674	600	600	141344	38764
3128	674	600	600	141344	38798
3129	673	600	600	141344	38798
3130	673	600	600	141369	38798
3131	674	600	600	141369	38830
3132	674	600	600	141369	38830
3133	674	600	600	141391	38830
3134	674	600	600	141391	38871
3135	673	600	600	141391	38871
3136	674	600	600	141409	38871
3137	674	600	600	141409	38915
3138	674	600	600	141409	38915
3139	674	600	600	141409	38915
3140	674	600	600	141419	38966
3141	674	600	600	141419	38966
3142	674	600	600	141419	38966
3143	674	600	600	141429	39019
3144	674	600	600	141429	39019
3145	674	600	600	141429	39019
3146	674	600	600	141443	39070
3147	674	600	600	141443	39070
3148	674	600	600	141443	39070
3149	674	600	600	141464	39114
3150	674	600	600	141464	39114
3151	674	600	600	141464	39114
3152	674	600	600	141485	39147
3153	674	600	600	141485	39147
3154	674	600	600	141485	39147
3155	674	600	600	141512	39173
3156	674	600	600	141512	39173
3157	673	600	600	141512	39173
3158	674	600	600	141548	39206
3159	674	600	600	141548	39206
3160	674	600	600	141548	39206
3161	673	600	600	141589	39242
3162	674	600	600	141589	39242
3163	674	600	600	141589	39242
3164	674	600	600	141629	39283
3165	671	600	600	141629	39283
3166	670	600	600	141629	39283
3167	669	600	600	141662	39325
3168	670	600	600	141662	39325
3169	670	600	600	141662	39325
3170	670	600	600	141692	39366
3171	670	600	600	141692	39366
3172	669	600	600	141692	39366
3173	669	600	600	141719	39403
3174	670	600	600	141719	39403
3175	670	600	600	141719	39403
3176	670	600	600	141740	39439
3177	670	600	600	141740	39439
3178	669	600	600	141740	39439
3179	669	600	600	141750	39471
3180	670	600	600	141750	39471
3181	670	600	600	141750	39471
3182	670	600	600	141760	39494
3183	670	600	600	141760	39494
3184	669	600	600	141760	39494
3185	669	600	600	141771	39521
3186	670	600	600	141771	39521
3187	670	600	600	141771	39521
3188	669	600	600	141786	39554
3189	670	600	600	141786	39554
3190	670	600	600	141786	39554
3191	670	600	600	141806	39595
3192	670	600	600	141806	39595
3193	670	600	600	141806	39595
3194	670	600	600	141827	39641
3195	670	600	600	141827	39641
3196	669	600	600	141827	39641
3197	669	600	600	141852	39689
3198	670	600	600	141852	39689
3199	670	600	600	141852	39689
3200	670	600	600	141879	39738
3201	670	600	600	141879	39738
3202	670	600	600	141879	39738
3203	670	600	600	141906	39780
3204	670	600	600	141906	39780
3205	669	600	600	141906	39780
3206	670	600	600	141934	39814
3207	670	600	600	141934	39814
3208	670	600	600	141934	39814
3209	669	600	600	141962	39842
3210	669	600	600	141962	39842
3211	670	600	600	141962	39842
3212	669	600	600	141990	39842
3213	670	600	600	141990	39876
3214	669	600	600	141990	39876
3215	670	600	600	142013	39876
3216	669	600	600	142013	39916
3217	670	600	600	142013	39916
3218	669	600	600	142036	39916
3219	670	600	600	142036	39961
3220	669	600	600	142036	39961
3221	670	600	600	142056	39961
3222	670	600	600	142056	40014
3223	670	600	600	142056	40014
3224	670	600	600	142070	40014
3225	670	600	600	142070	40061
3226	669	600	600	142070	40061
3227	669	600	600	142080	40061
3228	670	600	600	142080	40106
3229	670	600	600	142080	40106
3230	669	600	600	142088	40106
3231	669	600	600	142088	40146
3232	670	600	600	142088	40146
3233	669	600	600	142092	40146
3234	670	600	600	142092	40174
3235	669	600	600	142092	40174
3236	669	600	600	142093	40174
3237	669	600	600	142093	40199
3238	670	600	600	142093	40199
3239	670	600	600	142094	40199
3240	670	600	600	142094	40227
3241	669	600	600	142094	40227
3242	670	600	600	142095	40227
3243	669	600	600	142095	40262
3244	670	600	600	142095	40262
3245	669	600	600	142096	40262
3246	670	600	600	142096	40300
3247	669	600	600	142096	40300
3248	669	600	600	142097	40300
3249	669	600	600	142097	40337
3250	670	600	600	142097	40337
3251	669	600	600	142097	40337
3252	669	600	600	142097	40379
3253	670	600	600	142097	40379
3254	669	600	600	142098	40379
3255	669	600	600	142098	40419
3256	670	600	600	142098	40419
3257	669	600	600	142098	40419
3258	669	600	600	142098	40451
3259	670	600	600	142098	40451
3260	669	600	600	142098	40451
3261	670	600	600	142099	40477
3262	669	600	600	142099	40477
3263	669	600	600	142099	40477
3264	669	600	600	142099	40499
3265	669	600	600	142099	40499
3266	669	600	600	142099	40499
3267	670	600	600	142100	40516
3268	669	600	600	142100	40516
3269	669	600	600	142100	40516
3270	670	600	600	142100	40545
3271	670	600	600	142100	40545
3272	670	600	600	142100	40545
3273	670	600	600	142100	40578
3274	669	600	600	142100	40578
3275	670	600	600	142100	40578
3276	670	600	600	142101	40618
3277	670	600	600	142101	40618
3278	670	600	600	142101	40618
3279	670	600	600	142101	40665
3280	669	600	600	142101	40665
3281	669	600	600	142101	40665
3282	669	600	600	142102	40713
3283	670	600	600	142102	40713
3284	670	600	600	142102	40713
3285	670	600	600	142102	40760
3286	670	600	600	142102	40760
3287	670	600	600	142102	40760
3288	670	600	600	142102	40807
3289	670	600	600	142102	40807
3290	670	600	600	142102	40807
3291	670	600	600	142103	40843
3292	670	600	600	142103	40843
3293	669	600	600	142103	40843
3294	669	600	600	142103	40872
3295	669	600	600	142103	40872
3296	670	600	600	142103	40872
3297	669	600	600	142103	40907
3298	670	600	600	142103	40907
3299	670	600	600	142103	40907
3300	670	600	600	142103	40950
3301	670	600	600	142103	40950
3302	670	600	600	142103	40950
3303	670	600	600	142104	40998
3304	669	600	600	142104	40998
3305	669	600	600	142104	40998
3306	670	600	600	142104	41047
3307	669	600	600	142104	41047
3308	670	600	600	142104	41047
3309	669	600	600	142104	41095
3310	670	600	600	142104	41095
3311	670	600	600	142104	41095
3312	670	600	600	142105	41139
3313	669	600	600	142105	41139
3314	670	600	600	142105	41139
3315	669	600	600	142105	41174
3316	670	600	600	142105	41174
3317	670	600	600	142105	41174
3318	669	600	600	142105	41202
3319	669	600	600	142105	41202
3320	670	600	600	142105	41202
3321	670	600	600	142105	41229
3322	670	600	600	142105	41229
3323	670	600	600	142105	41229
3324	670	600	600	142106	41261
3325	669	600	600	142106	41261
3326	670	600	600	142106	41261
3327	670	600	600	142106	41295
3328	670	600	600	142106	41295
3329	670	600	600	142106	41295
3330	670	600	600	142106	41332
3331	670	600	600	142106	41332
3332	670	600	600	142106	41332
3333	670	600	600	142106	41332
3334	670	600	600	142106	41372
3335	670	600	600	142106	41372
3336	670	600	600	142107	41372
3337	670	600	600	142107	41413
3338	670	600	600	142107	41413
3339	669	600	600	142107	41413
3340	669	600	600	142107	41451
3341	670	600	600	142107	41451
3342	669	600	600	142107	41451
3343	669	600	600	142107	41487
3344	669	600	600	142107	41487
3345	670	600	600	142107	41487
3346	670	600	600	142107	41514
3347	670	600	600	142107	41514
3348	669	600	600	142107	41514
3349	670	600	600	142107	41534
3350	669	600	600	142107	41534
3351	670	600	600	142108	41534
3352	670	600	600	142108	41557
3353	669	600	600	142108	41557
3354	669	600	600	142108	41557
3355	670	600	600	142108	41587
3356	670	600	600	142108	41587
3357	669	600	600	142108	41587
3358	670	600	600	142108	41625
3359	670	600	600	142108	41625
3360	670	600	600	142108	41625
3361	670	600	600	142108	41666
3362	669	600	600	142108	41666
3363	669	600	600	142110	41666
3364	669	600	600	142110	41707
3365	670	600	600	142110	41707
3366	670	600	600	142122	41707
3367	670	600	600	142122	41753
3368	670	600	600	142122	41753
3369	669	600	600	142138	41753
3370	669	600	600	142138	41796
3371	669	600	600	142138	41796
3372	670	600	600	142160	41796
3373	669	600	600	142160	41834
3374	670	600	600	142160	41834
3375	669	600	600	142160	41834
3376	669	600	600	142189	41864
3377	669	600	600	142189	41864
3378	670	600	600	142189	41864
3379	669	600	600	142224	41891
3380	669	600	600	142224	41891
3381	669	600	600	142224	41891
3382	669	600	600	142263	41924
3383	670	600	600	142263	41924
3384	670	600	600	142263	41924
3385	670	600	600	142300	41960
3386	669	600	600	142300	41960
3387	670	600	600	142300	41960
3388	670	600	600	142331	41999
3389	670	600	600	142331	41999
3390	669	600	600	142331	41999
3391	669	600	600	142360	42045
3392	670	600	600	142360	42045
3393	670	600	600	142360	42045
3394	669	600	600	142387	42092
3395	670	600	600	142387	42092
3396	670	600	600	142387	42092
3397	670	600	600	142406	42136
3398	670	600	600	142406	42136
3399	670	600	600	142406	42136
3400	669	600	600	142412	42174
3401	669	600	600	142412	42174
3402	670	600	600	142412	42174
3403	670	600	600	142415	42204
3404	669	600	600	142415	42204
3405	670	600	600	142415	42204
3406	670	600	600	142420	42222
3407	669	600	600	142420	42222
3408	669	600	600	142420	42222
3409	669	600	600	142427	42240
3410	670	600	600	142427	42240
3411	670	600	600	142427	42240
3412	669	600	600	142438	42266
3413	670	600	600	142438	42266
3414	669	600	600	142438	42266
3415	670	600	600	142452	42297
3416	670	600	600	142452	42297
3417	669	600	600	142452	42297
3418	669	600	600	142466	42328
3419	670	600	600	142466	42328
3420	670	600	600	142466	42328
3421	670	600	600	142483	42360
3422	670	600	600	142483	42360
3423	670	600	600	142483	42360
3424	670	600	600	142505	42395
3425	670	600	600	142505	42395
3426	670	600	600	142505	42395
3427	669	600	600	142530	42435
3428	669	600	600	142530	42435
3429	670	600	600	142530	42435
3430	670	600	600	142558	42476
3431	670	600	600	142558	42476
3432	669	600	600	142558	42476
3433	669	600	600	142587	42507
3434	670	600	600	142587	42507
3435	669	600	600	142587	42507
3436	669	600	600	142619	42533
3437	670	600	600	142619	42533
3438	670	600	600	142619	42533
3439	670	600	600	142649	42553
3440	670	600	600	142649	42553
3441	670	600	600	142649	42553
3442	670	600	600	142677	42570
3443	670	600	600	142677	42570
3444	670	600	600	142677	42570
3445	670	600	600	142703	42596
3446	670	600	600	142703	42596
3447	669	600	600	142703	42596
3448	670	600	600	142723	42596
3449	669	600	600	142723	42627
3450	670	600	600	142723	42627
3451	670	600	600	142742	42627
3452	670	600	600	142742	42662
3453	669	600	600	142742	42662
3454	670	600	600	142753	42662
3455	670	600	600	142753	42703
3456	670	600	600	142753	42703
3457	670	600	600	142760	42703
3458	670	600	600	142760	42749
3459	670	600	600	142760	42749
3460	670	600	600	142766	42749
3461	669	600	600	142766	42794
3462	669	600	600	142766	42794
3463	670	600	600	142770	42794
3464	670	600	600	142770	42835
3465	669	600	600	142770	42835
3466	670	600	600	142774	42835
3467	669	600	600	142774	42871
3468	669	600	600	142774	42871
3469	670	600	600	142776	42871
3470	669	600	600	142776	42898
3471	670	600	600	142776	42898
3472	670	600	600	142778	42898
3473	670	600	600	142778	42927
3474	669	600	600	142778	42927
3475	670	600	600	142779	42927
3476	670	600	600	142779	42963
3477	670	600	600	142779	42963
3478	669	600	600	142780	42963
3479	670	600	600	142780	43003
3480	670	600	600	142780	43003
3481	670	600	600	142780	43003
3482	669	600	600	142780	43045
3483	670	600	600	142780	43045
3484	669	600	600	142781	43045
3485	669	600	600	142781	43092
3486	670	600	600	142781	43092
3487	669	600	600	142781	43092
3488	670	600	600	142781	43139
3489	670	600	600	142781	43139
3490	670	600	600	142781	43139
3491	669	600	600	142782	43185
3492	669	600	600	142782	43185
3493	669	600	600	142782	43185
3494	670	600	600	142782	43222
3495	670	600	600	142782	43222
3496	669	600	600	142782	43222
3497	670	600	600	142782	43251
3498	670	600	600	142782	43251
3499	669	600	600	142782	43251
3500	669	600	600	142782	43277
3501	670	600	600	142782	43277
3502	670	600	600	142782	43277
3503	669	600	600	142783	43306
3504	670	600	600	142783	43306
3505	670	600	600	142783	43306
3506	670	600	600	142783	43337
3507	669	600	600	142783	43337
3508	669	600	600	142783	43337
3509	669	600	600	142783	43371
3510	670	600	600	142783	43371
3511	670	600	600	142783	43371
3512	670	600	600	142784	43411
3513	670	600	600	142784	43411
3514	670	600	600	142784	43411
3515	669	600	600	142784	43447
3516	670	600	600	142784	43447
3517	670	600	600	142784	43447
3518	670	600	600	142784	43481
3519	670	600	600	142784	43481
3520	669	600	600	142784	43481
3521	669	600	600	142784	43512
3522	670	600	600	142784	43512
3523	669	600	600	142784	43512
3524	670	600	600	142785	43539
3525	669	600	600	142785	43539
3526	670	600	600	142785	43539
3527	669	600	600	142785	43560
3528	670	600	600	142785	43560
3529	669	600	600	142785	43560
3530	669	600	600	142785	43575
3531	669	600	600	142785	43575
3532	670	600	600	142785	43575
3533	670	600	600	142785	43587
3534	670	600	600	142785	43587
3535	670	600	600	142785	43587
3536	670	600	600	142785	43605
3537	670	600	600	142785	43605
3538	670	600	600	142785	43605
3539	669	600	600	142786	43631
3540	670	600	600	142786	43631
3541	670	600	600	142786	43631
3542	669	600	600	142786	43663
3543	670	600	600	142786	43663
3544	670	600	600	142786	43663
3545	670	600	600	142786	43702
3546	670	600	600	142786	43702
3547	670	600	600	142786	43702
3548	670	600	600	142786	43742
3549	670	600	600	142786	43742
3550	669	600	600	142786	43742
3551	670	600	600	142787	43784
3552	670	600	600	142787	43784
3553	669	600	600	142787	43784
3554	669	600	600	142787	43828
3555	670	600	600	142787	43828
3556	670	600	600	142787	43828
3557	669	600	600	142787	43867
3558	670	600	600	142787	43867
3559	669	600	600	142787	43867
3560	669	600	600	142787	43896
3561	670	600	600	142787	43896
3562	670	600	600	142787	43896
3563	670	600	600	142787	43896
3564	669	600	600	142787	43920
3565	670	600	600	142787	43920
3566	670	600	600	142788	43920
3567	670	600	600	142788	43941
3568	670	600	600	142788	43941
3569	670	600	600	142788	43941
3570	670	600	600	142788	43967
3571	669	600	600	142788	43967
3572	670	600	600	142788	43967
3573	669	600	600	142788	43999
3574	670	600	600	142788	43999
3575	670	600	600	142788	43999
3576	669	600	600	142788	44033
3577	670	600	600	142788	44033
3578	670	600	600	142788	44033
3579	670	600	600	142788	44073
3580	670	600	600	142788	44073
3581	669	600	600	142789	44073
3582	669	600	600	142789	44117
3583	670	600	600	142789	44117
3584	670	600	600	142789	44117
3585	669	600	600	142789	44155
3586	670	600	600	142789	44155
3587	669	600	600	142789	44155
3588	670	600	600	142789	44190
3589	669	600	600	142789	44190
3590	670	600	600	142789	44190
3591	670	600	600	142789	44220
3592	670	600	600	142789	44220
3593	670	600	600	142789	44220
3594	669	600	600	142789	44243
3595	670	600	600	142789	44243
3596	670	600	600	142790	44243
3597	670	600	600	142790	44257
3598	670	600	600	142790	44257
3599	669	600	600	142790	44257
3600	669	600	600	142790	44266
3601	669	600	600	142790	44266
3602	670	600	600	142790	44266
3603	670	600	600	142790	44276
3604	670	600	600	142790	44276
3605	670	600	600	142790	44276
3606	669	600	600	142790	44291
3607	670	600	600	142790	44291
3608	670	600	600	142790	44291
3609	670	600	600	142790	44312
3610	670	600	600	142790	44312
3611	670	600	600	142790	44312
3612	669	600	600	142790	44339
3613	669	600	600	142790	44339
3614	669	600	600	142790	44339
3615	670	600	600	142791	44369
3616	669	600	600	142791	44369
3617	669	600	600	142791	44369
3618	670	600	600	142791	44401
3619	670	600	600	142791	44401
3620	670	600	600	142791	44401
3621	669	600	600	142791	44432
3622	670	600	600	142791	44432
3623	669	600	600	142791	44432
3624	670	600	600	142791	44466
3625	670	600	600	142791	44466
3626	669	600	600	142791	44466
3627	669	600	600	142791	44503
3628	670	600	600	142791	44503
3629	669	600	600	142791	44503
3630	670	600	600	142791	44532
3631	669	600	600	142791	44532
3632	669	600	600	142791	44532
3633	670	600	600	142791	44556
3634	669	600	600	142791	44556
3635	670	600	600	142791	44556
3636	670	600	600	142792	44573
3637	670	600	600	142792	44573
3638	669	600	600	142792	44573
3639	670	600	600	142792	44585
3640	670	600	600	142792	44585
3641	669	600	600	142792	44585
3642	669	600	600	142792	44593
3643	669	600	600	142792	44593
3644	669	600	600	142792	44593
3645	670	600	600	142792	44599
3646	670	600	600	142792	44599
3647	670	600	600	142792	44599
3648	669	600	600	142792	44603
3649	670	600	600	142792	44603
3650	670	600	600	142792	44603
3651	670	600	600	142792	44611
3652	670	600	600	142792	44611
3653	668	600	600	142792	44611
3654	665	600	600	142792	44628
3655	666	600	600	142792	44628
3656	665	600	600	142792	44628
3657	666	600	600	142792	44651
3658	665	600	600	142792	44651
3659	665	600	600	142792	44651
3660	665	600	600	142793	44681
3661	665	600	600	142793	44681
3662	666	600	600	142793	44681
3663	666	600	600	142793	44718
3664	665	600	600	142793	44718
3665	665	600	600	142793	44718
3666	666	600	600	142793	44758
3667	666	600	600	142793	44758
3668	666	600	600	142793	44758
3669	666	600	600	142793	44798
3670	665	600	600	142793	44798
3671	665	600	600	142793	44798
3672	665	600	600	142793	44838
3673	665	600	600	142793	44838
3674	666	600	600	142793	44838
3675	665	600	600	142793	44877
3676	665	600	600	142793	44877
3677	665	600	600	142793	44877
3678	665	600	600	142794	44877
3679	664	600	600	142794	44910
3680	666	600	600	142794	44910
3681	665	600	600	142799	44910
3682	665	600	600	142799	44932
3683	666	600	600	142799	44932
3684	665	600	600	142807	44932
3685	665	600	600	142807	44946
3686	665	600	600	142807	44946
3687	665	600	600	142818	44946
3688	665	600	600	142818	44963
3689	665	600	600	142818	44963
3690	665	600	600	142830	44963
3691	666	600	600	142830	44984
3692	665	600	600	142830	44984
3693	665	600	600	142842	44984
3694	665	600	600	142842	45012
3695	665	600	600	142842	45012
3696	666	600	600	142857	45012
3697	666	600	600	142857	45045
3698	666	600	600	142857	45045
3699	666	600	600	142876	45045
3700	665	600	600	142876	45079
3701	665	600	600	142876	45079
3702	666	600	600	142896	45079
3703	665	600	600	142896	45114
3704	665	600	600	142896	45114
3705	666	600	600	142918	45114
3706	665	600	600	142918	45151
3707	666	600	600	142918	45151
3708	665	600	600	142943	45151
3709	666	600	600	142943	45188
3710	665	600	600	142943	45188
3711	665	600	600	142967	45188
3712	665	600	600	142967	45225
3713	665	600	600	142967	45225
3714	666	600	600	142991	45225
3715	665	600	600	142991	45254
3716	666	600	600	142991	45254
3717	665	600	600	143011	45254
3718	665	600	600	143011	45277
3719	665	600	600	143011	45277
3720	665	600	600	143027	45277
3721	666	600	600	143027	45292
3722	665	600	600	143027	45292
3723	665	600	600	143042	45292
3724	666	600	600	143042	45306
3725	666	600	600	143042	45306
3726	666	600	600	143058	45306
3727	666	600	600	143058	45323
3728	666	600	600	143058	45323
3729	665	600	600	143058	45323
3730	666	600	600	143074	45343
3731	665	600	600	143074	45343
3732	665	600	600	143074	45343
3733	666	600	600	143086	45367
3734	665	600	600	143086	45367
3735	665	600	600	143086	45367
3736	666	600	600	143095	45393
3737	666	600	600	143095	45393
3738	665	600	600	143095	45393
3739	665	600	600	143099	45418
3740	666	600	600	143099	45418
3741	665	600	600	143099	45418
3742	666	600	600	143100	45447
3743	665	600	600	143100	45447
3744	666	600	600	143100	45447
3745	665	600	600	143101	45478
3746	666	600	600	143101	45478
3747	665	600	600	143101	45478
3748	666	600	600	143101	45510
3749	665	600	600	143101	45510
3750	666	600	600	143101	45510
3751	666	600	600	143101	45540
3752	665	600	600	143101	45540
3753	665	600	600	143101	45540
3754	666	600	600	143102	45567
3755	665	600	600	143102	45567
3756	666	600	600	143102	45567
3757	666	600	600	143102	45589
3758	665	600	600	143102	45589
3759	666	600	600	143102	45589
3760	665	600	600	143103	45605
3761	665	600	600	143103	45605
3762	666	600	600	143103	45605
3763	666	600	600	143103	45617
3764	665	600	600	143103	45617
3765	666	600	600	143103	45617
3766	665	600	600	143104	45624
3767	666	600	600	143104	45624
3768	664	600	600	143104	45624
3769	665	600	600	143104	45635
3770	665	600	600	143104	45635
3771	666	600	600	143104	45635
3772	665	600	600	143105	45652
3773	666	600	600	143105	45652
3774	665	600	600	143105	45652
3775	665	600	600	143105	45674
3776	665	600	600	143105	45674
3777	666	600	600	143105	45674
3778	666	600	600	143106	45698
3779	666	600	600	143106	45698
3780	665	600	600	143106	45698
3781	665	600	600	143106	45733
3782	665	600	600	143106	45733
3783	666	600	600	143106	45733
3784	666	600	600	143107	45770
3785	666	600	600	143107	45770
3786	665	600	600	143107	45770
3787	665	600	600	143108	45808
3788	666	600	600	143108	45808
3789	665	600	600	143108	45808
3790	665	600	600	143109	45850
3791	665	600	600	143109	45850
3792	665	600	600	143109	45850
3793	665	600	600	143110	45886
3794	666	600	600	143110	45886
3795	665	600	600	143110	45886
3796	665	600	600	143111	45886
3797	665	600	600	143111	45916
3798	666	600	600	143111	45916
3799	665	600	600	143112	45916
3800	665	600	600	143112	45940
3801	665	600	600	143112	45940
3802	665	600	600	143114	45940
3803	666	600	600	143114	45958
3804	665	600	600	143114	45958
3805	664	600	600	143116	45958
3806	666	600	600	143116	45972
3807	665	600	600	143116	45972
3808	665	600	600	143118	45972
3809	665	600	600	143118	45990
3810	665	600	600	143118	45990
3811	665	600	600	143123	45990
3812	666	600	600	143123	46013
3813	665	600	600	143123	46013
3814	665	600	600	143130	46013
3815	665	600	600	143130	46036
3816	665	600	600	143130	46036
3817	665	600	600	143138	46036
3818	666	600	600	143138	46061
3819	666	600	600	143138	46061
3820	665	600	600	143148	46061
3821	665	600	600	143148	46089
3822	666	600	600	143148	46089
3823	666	600	600	143161	46089
3824	666	600	600	143161	46122
3825	665	600	600	143161	46122
3826	665	600	600	143173	46122
3827	665	600	600	143173	46162
3828	665	600	600	143173	46162
3829	665	600	600	143188	46162
3830	666	600	600	143188	46199
3831	665	600	600	143188	46199
3832	665	600	600	143207	46199
3833	666	600	600	143207	46232
3834	666	600	600	143207	46232
3835	666	600	600	143228	46232
3836	665	600	600	143228	46259
3837	665	600	600	143228	46259
3838	666	600	600	143253	46259
3839	665	600	600	143253	46280
3840	665	600	600	143253	46280
3841	666	600	600	143277	46280
3842	666	600	600	143277	46297
3843	666	600	600	143277	46297
3844	665	600	600	143301	46297
3845	665	600	600	143301	46306
3846	665	600	600	143301	46306
3847	665	600	600	143301	46306
3848	666	600	600	143329	46312
3849	666	600	600	143329	46312
3850	665	600	600	143329	46312
3851	665	600	600	143354	46320
3852	665	600	600	143354	46320
3853	666	600	600	143354	46320
3854	665	600	600	143379	46330
3855	665	600	600	143379	46330
3856	665	600	600	143379	46330
3857	665	600	600	143400	46344
3858	665	600	600	143400	46344
3859	665	600	600	143400	46344
3860	665	600	600	143416	46362
3861	665	600	600	143416	46362
3862	666	600	600	143416	46362
3863	666	600	600	143428	46380
3864	665	600	600	143428	46380
3865	665	600	600	143428	46380
3866	666	600	600	143437	46401
3867	665	600	600	143437	46401
3868	665	600	600	143437	46401
3869	666	600	600	143443	46429
3870	666	600	600	143443	46429
3871	665	600	600	143443	46429
3872	666	600	600	143447	46457
3873	666	600	600	143447	46457
3874	666	600	600	143447	46457
3875	665	600	600	143447	46489
3876	665	600	600	143447	46489
3877	665	600	600	143447	46489
3878	666	600	600	143448	46524
3879	665	600	600	143448	46524
3880	665	600	600	143448	46524
3881	666	600	600	143448	46557
3882	665	600	600	143448	46557
3883	666	600	600	143448	46557
3884	666	600	600	143449	46580
3885	665	600	600	143449	46580
3886	665	600	600	143449	46580
3887	665	600	600	143449	46601
3888	665	600	600	143449	46601
3889	666	600	600	143449	46601
3890	665	600	600	143449	46617
3891	665	600	600	143449	46617
3892	665	600	600	143449	46617
3893	666	600	600	143450	46629
3894	666	600	600	143450	46629
3895	666	600	600	143450	46629
3896	665	600	600	143450	46639
3897	665	600	600	143450	46639
3898	665	600	600	143450	46639
3899	666	600	600	143450	46646
3900	665	600	600	143450	46646
3901	666	600	600	143450	46646
3902	666	600	600	143451	46649
3903	666	600	600	143451	46649
3904	665	600	600	143451	46649
3905	665	600	600	143451	46653
3906	665	600	600	143451	46653
3907	666	600	600	143451	46653
3908	665	600	600	143451	46665
3909	666	600	600	143451	46665
3910	665	600	600	143451	46665
3911	666	600	600	143451	46686
3912	665	600	600	143451	46686
3913	666	600	600	143451	46686
3914	665	600	600	143452	46709
3915	666	600	600	143452	46709
3916	665	600	600	143452	46709
3917	666	600	600	143452	46709
3918	665	600	600	143452	46735
3919	666	600	600	143452	46735
3920	665	600	600	143452	46735
3921	666	600	600	143452	46766
3922	665	600	600	143452	46766
3923	665	600	600	143452	46766
3924	665	600	600	143452	46802
3925	666	600	600	143452	46802
3926	665	600	600	143453	46802
3927	665	600	600	143453	46839
3928	665	600	600	143453	46839
3929	666	600	600	143453	46839
3930	666	600	600	143453	46875
3931	665	600	600	143453	46875
3932	665	600	600	143453	46875
3933	666	600	600	143453	46907
3934	666	600	600	143453	46907
3935	666	600	600	143453	46907
3936	665	600	600	143453	46937
3937	666	600	600	143453	46937
3938	666	600	600	143454	46937
3939	665	600	600	143454	46962
3940	665	600	600	143454	46962
3941	666	600	600	143454	46962
3942	666	600	600	143454	46978
3943	666	600	600	143454	46978
3944	666	600	600	143454	46978
3945	666	600	600	143454	46988
3946	666	600	600	143454	46988
3947	665	600	600	143454	46988
3948	665	600	600	143454	47000
3949	666	600	600	143454	47000
3950	666	600	600	143454	47000
3951	666	600	600	143454	47016
3952	666	600	600	143454	47016
3953	665	600	600	143455	47016
3954	665	600	600	143455	47036
3955	665	600	600	143455	47036
3956	666	600	600	143455	47036
3957	665	600	600	143455	47064
3958	665	600	600	143455	47064
3959	666	600	600	143455	47064
3960	666	600	600	143455	47097
3961	665	600	600	143455	47097
3962	666	600	600	143455	47097
3963	666	600	600	143455	47136
3964	665	600	600	143455	47136
3965	666	600	600	143455	47136
3966	665	600	600	143455	47176
3967	665	600	600	143455	47176
3968	666	600	600	143455	47176
3969	665	600	600	143456	47215
3970	665	600	600	143456	47215
3971	666	600	600	143456	47215
3972	666	600	600	143456	47256
3973	666	600	600	143456	47256
3974	665	600	600	143456	47256
3975	665	600	600	143456	47291
3976	665	600	600	143456	47291
3977	665	600	600	143456	47291
3978	665	600	600	143456	47320
3979	666	600	600	143456	47320
3980	665	600	600	143456	47320
3981	666	600	600	143456	47338
3982	665	600	600	143456	47338
3983	665	600	600	143456	47338
3984	665	600	600	143456	47352
3985	666	600	600	143456	47352
3986	666	600	600	143456	47352
3987	665	600	600	143457	47367
3988	665	600	600	143457	47367
3989	666	600	600	143457	47367
3990	666	600	600	143457	47388
3991	666	600	600	143457	47388
3992	665	600	600	143457	47388
3993	665	600	600	143457	47412
3994	665	600	600	143457	47412
3995	665	600	600	143457	47412
3996	666	600	600	143457	47438
3997	665	600	600	143457	47438
3998	666	600	600	143457	47438
3999	665	600	600	143457	47468
4000	666	0	600	143457	47468
4001	665	0	600	143457	47468
4002	666	0	600	143457	47502
4003	665	0	600	143457	47502
4004	666	0	600	143457	47502
4005	665	0	600	143458	47466
4006	666	0	600	143458	47466
4007	665	0	600	143458	47466
4008	666	0	600	143458	47328
4009	666	0	600	143458	47328
4010	666	0	600	143458	47328
4011	665	0	600	143458	47078
4012	665	0	600	143458	47078
4013	665	0	600	143458	47078
4014	665	0	600	143458	46727
4015	666	0	600	143458	46727
4016	665	0	600	143458	46727
4017	666	0	600	143458	46291
4018	666	0	600	143458	46291
4019	666	0	600	143458	46291
4020	666	0	600	143459	45782
4021	665	0	600	143459	45782
4022	666	0	600	143459	45782
4023	666	0	600	143459	45214
4024	666	0	600	143459	45214
4025	666	0	600	143459	45214
4026	662	0	600	143459	44589
4027	662	0	600	143459	44589
4028	662	0	600	143459	44589
4029	661	0	600	143459	43908
4030	662	0	600	143459	43908
4031	661	0	600	143459	43908
4032	661	0	600	143459	43170
4033	662	0	600	143459	43170
4034	661	0	600	143459	43170
4035	662	0	600	143460	42378
4036	662	0	600	143460	42378
4037	662	0	600	143460	42378
4038	662	0	600	143460	41538
4039	662	0	600	143460	41538
4040	662	0	600	143460	41538
4041	661	0	600	143460	40643
4042	662	0	600	143460	40643
4043	661	0	600	143460	40643
4044	662	0	600	143460	39701
4045	662	0	600	143460	39701
4046	662	0	600	143460	39701
4047	662	0	600	143460	38710
4048	661	0	600	143460	38710
4049	661	0	600	143460	38710
4050	661	0	600	143461	37669
4051	662	0	600	143461	37669
4052	661	0	600	143461	37669
4053	661	0	600	143461	36584
4054	661	0	600	143461	36584
4055	662	0	600	143461	36584
4056	662	0	600	143461	35450
4057	661	0	600	143461	35450
