0	0	0	0	0	-149417
1	0	0	0	0	-149417
2	0	0	0	0	-149417
3	878	0	0	0	-149417
4	878	0	0	0	-149417
5	878	0	0	0	-149417
6	878	0	0	0	-149417
7	878	0	0	-17388	-149417
8	877	0	0	-17388	-149417
9	879	0	0	-17388	-149417
10	878	200	200	-17388	-149417
11	878	200	200	-17388	-149417
12	876	200	200	-17388	-149417
13	876	200	200	-17388	-149417
14	877	200	200	-17388	-149417
15	872	200	200	-17388	-149394
16	873	200	200	-17365	-149394
17	874	200	200	-17365	-149394
18	873	200	200	-17365	-149342
19	874	200	200	-17316	-149342
20	874	200	200	-17316	-149342
21	874	200	200	-17316	-149281
22	874	200	200	-17316	-149281
23	874	200	200	-17257	-149281
24	875	200	200	-17257	-149211
25	873	200	200	-17257	-149211
26	874	200	200	-17190	-149211
27	874	200	200	-17190	-149140
28	873	200	200	-17190	-149140
29	873	200	200	-17122	-149140
30	874	200	200	-17122	-149068
31	873	200	200	-17122	-149068
32	873	200	200	-17053	-149068
33	874	200	200	-17053	-148997
34	873	200	200	-17053	-148997
35	874	200	200	-16981	-148997
36	874	200	200	-16981	-148920
37	875	200	200	-16981	-148920
38	875	200	200	-16906	-148920
39	874	200	200	-16906	-148846
40	874	200	200	-16906	-148846
41	874	200	200	-16832	-148846
42	874	200	200	-16832	-148771
43	875	200	200	-16832	-148771
44	875	200	200	-16757	-148771
45	873	200	200	-16757	-148696
46	873	200	200	-16757	-148696
47	874	200	200	-16684	-148696
48	873	200	200	-16684	-148621
49	874	200	200	-16684	-148621
50	874	200	200	-16608	-148621
51	874	200	200	-16608	-148545
52	875	200	200	-16608	-148545
53	873	200	200	-16534	-148545
54	875	200	200	-16534	-148473
55	874	200	200	-16534	-148473
56	874	200	200	-16460	-148473
57	875	200	200	-16460	-148393
58	873	200	200	-16460	-148393
59	874	200	200	-16387	-148393
60	874	200	200	-16387	-148320
61	872	200	200	-16387	-148320
62	873	200	200	-16312	-148320
63	871	200	200	-16312	-148320
64	868	200	200	-16312	-148243
65	867	200	200	-16237	-148243
66	870	200	200	-16237	-148243
67	869	200	200	-16237	-148165
68	870	200	200	-16166	-148165
69	870	200	200	-16166	-148165
70	870	200	200	-16166	-148090
71	871	200	200	-16088	-148090
72	870	200	200	-16088	-148090
73	870	200	200	-16088	-148013
74	870	200	200	-16018	-148013
75	869	200	200	-16018	-148013
76	870	200	200	-16018	-147938
77	867	200	200	-15944	-147938
78	869	200	200	-15944	-147938
79	870	200	200	-15944	-147858
80	869	200	200	-15870	-147858
81	870	200	200	-15870	-147858
82	870	200	200	-15870	-147782
83	870	200	200	-15796	-147782
84	868	200	200	-15796	-147782
85	869	200	200	-15796	-147703
86	868	200	200	-15724	-147703
87	869	200	200	-15724	-147703
88	870	200	200	-15724	-147627
89	870	200	200	-15650	-147627
90	870	200	200	-15650	-147627
91	871	200	200	-15650	-147550
92	870	200	200	-15576	-147550
93	869	200	200	-15576	-147550
94	868	200	200	-15576	-147472
95	869	200	200	-15503	-147472
96	869	200	200	-15503	-147472
97	870	200	200	-15503	-147394
98	867	200	200	-15427	-147394
99	867	200	200	-15427	-147394
100	866	200	200	-15427	-147320
101	864	200	200	-15354	-147320
102	865	200	200	-15354	-147320
103	866	200	200	-15354	-147244
104	866	200	200	-15278	-147244
105	866	200	200	-15278	-147244
106	866	200	200	-15278	-147165
107	866	200	200	-15203	-147165
108	866	200	200	-15203	-147165
109	865	200	200	-15203	-147088
110	866	200	200	-15126	-147088
111	864	200	200	-15126	-147088
112	864	200	200	-15126	-147013
113	866	200	200	-15052	-147013
114	866	200	200	-15052	-147013
115	865	200	200	-15052	-146940
116	866	200	200	-14978	-146940
117	867	200	200	-14978	-146940
118	864	200	200	-14978	-146862
119	865	200	200	-14902	-146862
120	866	200	200	-14902	-146862
121	866	200	200	-14902	-146786
122	866	200	200	-14823	-146786
123	866	200	200	-14823	-146786
124	862	200	200	-14823	-146711
125	861	200	200	-14746	-146711
126	861	200	200	-14746	-146711
127	863	200	200	-14746	-146635
128	861	200	200	-14673	-146635
129	861	200	200	-14673	-146635
130	862	200	200	-14673	-146562
131	862	200	200	-14597	-146562
132	862	200	200	-14597	-146562
133	862	200	200	-14597	-146485
134	862	200	200	-14523	-146485
135	860	200	200	-14523	-146485
136	861	200	200	-14523	-146411
137	862	200	200	-14523	-146411
138	862	200	200	-14446	-146411
139	862	200	200	-14446	-146332
140	862	200	200	-14446	-146332
141	862	200	200	-14373	-146332
142	861	200	200	-14373	-146258
143	861	200	200	-14373	-146258
144	860	200	200	-14297	-146258
145	858	200	200	-14297	-146181
146	859	200	200	-14297	-146181
147	858	200	200	-14222	-146181
148	858	200	200	-14222	-146102
149	857	200	200	-14222	-146102
150	857	200	200	-14149	-146102
151	856	200	200	-14149	-146027
152	859	200	200	-14149	-146027
153	856	200	200	-14076	-146027
154	857	200	200	-14076	-145948
155	858	200	200	-14076	-145948
156	858	200	200	-14001	-145948
157	858	200	200	-14001	-145874
158	858	200	200	-14001	-145874
159	858	200	200	-13927	-145874
160	855	200	200	-13927	-145794
161	856	200	200	-13927	-145794
162	858	200	200	-13853	-145794
163	856	200	200	-13853	-145717
164	853	200	200	-13853	-145717
165	853	200	200	-13776	-145717
166	853	200	200	-13776	-145639
167	854	200	200	-13776	-145639
168	853	200	200	-13706	-145639
169	854	200	200	-13706	-145561
170	853	200	200	-13706	-145561
171	853	200	200	-13632	-145561
172	853	200	200	-13632	-145485
173	853	200	200	-13632	-145485
174	854	200	200	-13560	-145485
175	853	200	200	-13560	-145405
176	854	200	200	-13560	-145405
177	853	200	200	-13485	-145405
178	854	200	200	-13485	-145328
179	854	200	200	-13485	-145328
180	851	200	200	-13410	-145328
181	850	200	200	-13410	-145328
182	850	200	200	-13410	-145253
183	850	200	200	-13335	-145253
184	850	200	200	-13335	-145253
185	850	200	200	-13335	-145177
186	850	200	200	-13261	-145177
187	850	200	200	-13261	-145177
188	850	200	200	-13261	-145097
189	851	200	200	-13187	-145097
190	849	200	200	-13187	-145097
191	849	200	200	-13187	-145020
192	850	200	200	-13110	-145020
193	850	200	200	-13110	-145020
194	850	200	200	-13110	-144945
195	849	200	200	-13034	-144945
196	850	200	200	-13034	-144945
197	849	200	200	-13034	-144868
198	847	200	200	-12960	-144868
199	845	200	200	-12960	-144868
200	846	200	200	-12960	-144792
201	845	200	200	-12885	-144792
202	846	200	200	-12885	-144792
203	846	200	200	-12885	-144714
204	845	200	200	-12807	-144714
205	846	200	200	-12807	-144714
206	846	200	200	-12807	-144639
207	846	200	200	-12730	-144639
208	846	200	200	-12730	-144639
209	846	200	200	-12730	-144562
210	846	200	200	-12654	-144562
211	846	200	200	-12654	-144562
212	846	200	200	-12654	-144486
213	845	200	200	-12580	-144486
214	847	200	200	-12580	-144486
215	846	200	200	-12580	-144410
216	847	200	200	-12503	-144410
217	846	200	200	-12503	-144410
218	846	200	200	-12503	-144333
219	842	200	200	-12428	-144333
220	842	200	200	-12428	-144333
221	842	200	200	-12428	-144258
222	842	200	200	-12354	-144258
223	841	200	200	-12354	-144258
224	841	200	200	-12354	-144181
225	842	200	200	-12278	-144181
226	841	200	200	-12278	-144181
227	842	200	200	-12278	-144104
228	841	200	200	-12203	-144104
229	842	200	200	-12203	-144104
230	842	200	200	-12203	-144024
231	842	200	200	-12127	-144024
232	841	200	200	-12127	-144024
233	842	200	200	-12127	-143951
234	841	200	200	-12055	-143951
235	842	200	200	-12055	-143951
236	841	200	200	-12055	-143873
237	841	200	200	-11978	-143873
238	842	200	200	-11978	-143873
239	842	200	200	-11978	-143795
240	842	200	200	-11906	-143795
241	841	200	200	-11906	-143795
242	837	200	200	-11906	-143717
243	838	200	200	-11831	-143717
244	838	200	200	-11831	-143717
245	838	200	200	-11831	-143638
246	837	200	200	-11755	-143638
247	838	200	200	-11755	-143638
248	838	200	200	-11755	-143562
249	838	200	200	-11682	-143562
250	838	200	200	-11682	-143562
251	838	200	200	-11682	-143483
252	838	200	200	-11608	-143483
253	838	200	200	-11608	-143483
254	838	200	200	-11608	-143405
255	838	200	200	-11536	-143405
256	838	200	200	-11536	-143405
257	836	200	200	-11536	-143326
258	838	200	200	-11461	-143326
259	838	200	200	-11461	-143326
260	838	200	200	-11461	-143250
261	837	200	200	-11461	-143250
262	837	200	200	-11388	-143250
263	839	200	200	-11388	-143174
264	836	200	200	-11388	-143174
265	838	200	200	-11310	-143174
266	838	200	200	-11310	-143096
267	838	200	200	-11310	-143096
268	837	200	200	-11237	-143096
269	837	200	200	-11237	-143017
270	839	200	200	-11237	-143017
271	838	200	200	-11161	-143017
272	838	200	200	-11161	-142939
273	838	200	200	-11161	-142939
274	838	200	200	-11085	-142939
275	837	200	200	-11085	-142865
276	837	200	200	-11085	-142865
277	838	200	200	-11009	-142865
278	838	200	200	-11009	-142787
279	838	200	200	-11009	-142787
280	838	200	200	-10935	-142787
281	837	200	200	-10935	-142712
282	832	200	200	-10935	-142712
283	834	200	200	-10859	-142712
284	835	200	200	-10859	-142633
285	835	200	200	-10859	-142633
286	834	200	200	-10782	-142633
287	834	200	200	-10782	-142557
288	834	200	200	-10782	-142557
289	834	200	200	-10705	-142557
290	833	200	200	-10705	-142482
291	835	200	200	-10705	-142482
292	833	200	200	-10629	-142482
293	834	200	200	-10629	-142405
294	834	200	200	-10629	-142405
295	833	200	200	-10556	-142405
296	833	200	200	-10556	-142331
297	834	200	200	-10556	-142331
298	834	200	200	-10479	-142331
299	834	200	200	-10479	-142331
300	834	200	200	-10479	-142250
301	835	200	200	-10405	-142250
302	833	200	200	-10405	-142250
303	833	200	200	-10405	-142176
304	835	200	200	-10328	-142176
305	833	200	200	-10328	-142176
306	834	200	200	-10328	-142098
307	834	200	200	-10254	-142098
308	834	200	200	-10254	-142098
309	834	200	200	-10254	-142020
310	834	200	200	-10180	-142020
311	834	200	200	-10180	-142020
312	833	200	200	-10180	-141943
313	834	200	200	-10106	-141943
314	834	200	200	-10106	-141943
315	833	200	200	-10106	-141865
316	835	200	200	-10035	-141865
317	834	200	200	-10035	-141865
318	834	200	200	-10035	-141790
319	834	200	200	-9958	-141790
320	834	200	200	-9958	-141790
321	834	200	200	-9958	-141710
322	834	200	200	-9886	-141710
323	834	200	200	-9886	-141710
324	834	200	200	-9886	-141633
325	834	200	200	-9812	-141633
326	834	200	200	-9812	-141633
327	834	200	200	-9812	-141554
328	835	200	200	-9739	-141554
329	834	200	200	-9739	-141554
330	834	200	200	-9739	-141476
331	834	200	200	-9664	-141476
332	834	200	200	-9664	-141476
333	835	200	200	-9664	-141398
334	834	200	200	-9595	-141398
335	835	200	200	-9595	-141398
336	834	200	200	-9595	-141319
337	834	200	200	-9521	-141319
338	834	200	200	-9521	-141319
339	834	200	200	-9521	-141241
340	834	200	200	-9448	-141241
341	835	200	200	-9448	-141241
342	834	200	200	-9448	-141166
343	834	200	200	-9374	-141166
344	834	200	200	-9374	-141166
345	835	200	200	-9374	-141089
346	834	200	200	-9298	-141089
347	834	200	200	-9298	-141089
348	834	200	200	-9298	-141009
349	834	200	200	-9225	-141009
350	833	200	200	-9225	-141009
351	834	200	200	-9225	-140931
352	834	200	200	-9150	-140931
353	834	200	200	-9150	-140931
354	835	200	200	-9150	-140855
355	835	200	200	-9075	-140855
356	834	200	200	-9075	-140855
357	835	200	200	-9075	-140778
358	835	200	200	-8997	-140778
359	835	200	200	-8997	-140778
360	835	200	200	-8997	-140702
361	833	200	200	-8921	-140702
362	834	200	200	-8921	-140702
363	834	200	200	-8921	-140623
364	834	200	200	-8847	-140623
365	838	200	200	-8847	-140623
366	838	200	200	-8847	-140548
367	838	200	200	-8771	-140548
368	837	200	200	-8771	-140548
369	838	200	200	-8771	-140470
370	838	200	200	-8692	-140470
371	837	200	200	-8692	-140470
372	838	200	200	-8692	-140394
373	837	200	200	-8614	-140394
374	838	200	200	-8614	-140394
375	838	200	200	-8614	-140317
376	838	200	200	-8538	-140317
377	837	200	200	-8538	-140317
378	838	200	200	-8538	-140241
379	838	200	200	-8538	-140241
380	837	200	200	-8462	-140241
381	837	200	200	-8462	-140164
382	837	200	200	-8462	-140164
383	838	200	200	-8387	-140164
384	838	200	200	-8387	-140087
385	839	200	200	-8387	-140087
386	838	200	200	-8309	-140087
387	839	200	200	-8309	-140009
388	842	200	200	-8309	-140009
389	843	200	200	-8235	-140009
390	842	200	200	-8235	-139929
391	842	200	200	-8235	-139929
392	841	200	200	-8157	-139929
393	840	200	200	-8157	-139856
394	842	200	200	-8157	-139856
395	842	200	200	-8081	-139856
396	842	200	200	-8081	-139777
397	842	200	200	-8081	-139777
398	843	200	200	-8007	-139777
399	841	200	200	-8007	-139699
400	840	200	200	-8007	-139699
401	843	200	200	-7933	-139699
402	841	200	200	-7933	-139621
403	842	200	200	-7933	-139621
404	842	200	200	-7857	-139621
405	842	200	200	-7857	-139541
406	841	200	200	-7857	-139541
407	842	200	200	-7782	-139541
408	847	200	200	-7782	-139465
409	846	200	200	-7782	-139465
410	847	200	200	-7707	-139465
411	846	200	200	-7707	-139387
412	847	200	200	-7707	-139387
413	845	200	200	-7630	-139387
414	845	200	200	-7630	-139309
415	847	200	200	-7630	-139309
416	845	200	200	-7560	-139309
417	846	200	200	-7560	-139309
418	846	200	200	-7560	-139230
419	847	200	200	-7484	-139230
420	846	200	200	-7484	-139230
421	845	200	200	-7484	-139155
422	846	200	200	-7410	-139155
423	845	200	200	-7410	-139155
424	846	200	200	-7410	-139079
425	846	200	200	-7334	-139079
426	847	200	200	-7334	-139079
427	850	200	200	-7334	-139001
428	850	200	200	-7258	-139001
429	851	200	200	-7258	-139001
430	848	200	200	-7258	-138921
431	849	200	200	-7184	-138921
432	851	200	200	-7184	-138921
433	850	200	200	-7184	-138843
434	850	200	200	-7108	-138843
435	849	200	200	-7108	-138843
436	851	200	200	-7108	-138770
437	849	200	200	-7032	-138770
438	848	200	200	-7032	-138770
439	851	200	200	-7032	-138691
440	849	200	200	-6954	-138691
441	850	200	200	-6954	-138691
442	850	200	200	-6954	-138617
443	850	200	200	-6877	-138617
444	853	200	200	-6877	-138617
445	853	200	200	-6877	-138538
446	854	200	200	-6804	-138538
447	853	200	200	-6804	-138538
448	855	200	200	-6804	-138462
449	854	200	200	-6728	-138462
450	854	200	200	-6728	-138462
451	854	200	200	-6728	-138386
452	854	200	200	-6649	-138386
453	854	200	200	-6649	-138386
454	854	200	200	-6649	-138310
455	854	200	200	-6572	-138310
456	854	200	200	-6572	-138310
457	852	200	200	-6572	-138235
458	853	200	200	-6496	-138235
459	857	200	200	-6496	-138235
460	857	200	200	-6496	-138154
461	858	200	200	-6421	-138154
462	858	200	200	-6421	-138154
463	858	200	200	-6421	-138080
464	858	200	200	-6346	-138080
465	858	200	200	-6346	-138080
466	858	200	200	-6346	-138002
467	858	200	200	-6269	-138002
468	858	200	200	-6269	-138002
469	857	200	200	-6269	-137923
470	857	200	200	-6195	-137923
471	858	200	200	-6195	-137923
472	857	200	200	-6195	-137847
473	858	200	200	-6118	-137847
474	858	200	200	-6118	-137847
475	857	200	200	-6118	-137769
476	857	200	200	-6042	-137769
477	859	200	200	-6042	-137769
478	862	200	200	-6042	-137693
479	861	200	200	-5969	-137693
480	862	200	200	-5969	-137693
481	862	200	200	-5969	-137613
482	862	200	200	-5896	-137613
483	861	200	200	-5896	-137613
484	862	200	200	-5896	-137535
485	861	200	200	-5819	-137535
486	861	200	200	-5819	-137535
487	861	200	200	-5819	-137456
488	862	200	200	-5746	-137456
489	862	200	200	-5746	-137456
490	862	200	200	-5746	-137378
491	862	200	200	-5671	-137378
492	861	200	200	-5671	-137378
493	862	200	200	-5671	-137300
494	861	200	200	-5594	-137300
495	862	200	200	-5594	-137300
496	862	200	200	-5594	-137221
497	866	200	200	-5594	-137221
498	866	200	200	-5524	-137221
499	865	200	200	-5524	-137143
500	866	200	200	-5524	-137143
501	866	200	200	-5449	-137143
502	865	200	200	-5449	-137068
503	865	200	200	-5449	-137068
504	866	200	200	-5378	-137068
505	866	200	200	-5378	-136990
506	866	200	200	-5378	-136990
507	866	200	200	-5302	-136990
508	865	200	200	-5302	-136911
509	865	200	200	-5302	-136911
510	866	200	200	-5227	-136911
511	866	200	200	-5227	-136833
512	866	200	200	-5227	-136833
513	866	200	200	-5151	-136833
514	866	200	200	-5151	-136757
515	866	200	200	-5151	-136757
516	866	200	200	-5078	-136757
517	865	200	200	-5078	-136680
518	865	200	200	-5078	-136680
519	866	200	200	-5004	-136680
520	866	200	200	-5004	-136604
521	866	200	200	-5004	-136604
522	866	200	200	-4928	-136604
523	866	200	200	-4928	-136526
524	865	200	200	-4928	-136526
525	865	200	200	-4852	-136526
526	866	200	200	-4852	-136451
527	866	200	200	-4852	-136451
528	866	200	200	-4778	-136451
529	865	200	200	-4778	-136374
530	865	200	200	-4778	-136374
531	865	200	200	-4703	-136374
532	866	200	200	-4703	-136298
533	866	200	200	-4703	-136298
534	865	200	200	-4625	-136298
535	866	200	200	-4625	-136298
536	865	200	200	-4625	-136222
537	866	200	200	-4550	-136222
538	865	200	200	-4550	-136222
539	866	200	200	-4550	-136146
540	866	200	200	-4474	-136146
541	866	200	200	-4474	-136146
542	866	200	200	-4474	-136069
543	866	200	200	-4401	-136069
544	866	200	200	-4401	-136069
545	866	200	200	-4401	-135992
546	866	200	200	-4323	-135992
547	865	200	200	-4323	-135992
548	866	200	200	-4323	-135914
549	864	200	200	-4249	-135914
550	865	200	200	-4249	-135914
551	866	200	200	-4249	-135835
552	866	200	200	-4173	-135835
553	866	200	200	-4173	-135835
554	866	200	200	-4173	-135762
555	866	200	200	-4099	-135762
556	865	200	200	-4099	-135762
557	865	200	200	-4099	-135683
558	867	200	200	-4024	-135683
559	865	200	200	-4024	-135683
560	865	200	200	-4024	-135605
561	865	200	200	-3948	-135605
562	866	200	200	-3948	-135605
563	866	200	200	-3948	-135527
564	866	200	200	-3877	-135527
565	866	200	200	-3877	-135527
566	866	200	200	-3877	-135447
567	862	200	200	-3799	-135447
568	863	200	200	-3799	-135447
569	859	200	200	-3799	-135371
570	859	200	200	-3728	-135371
571	861	200	200	-3728	-135371
572	862	200	200	-3728	-135292
573	862	200	200	-3654	-135292
574	862	200	200	-3654	-135292
575	862	200	200	-3654	-135215
576	862	200	200	-3579	-135215
577	861	200	200	-3579	-135215
578	861	200	200	-3579	-135135
579	862	200	200	-3506	-135135
580	862	200	200	-3506	-135135
581	862	200	200	-3506	-135059
582	862	200	200	-3434	-135059
583	862	200	200	-3434	-135059
584	860	200	200	-3434	-134983
585	861	200	200	-3360	-134983
586	858	200	200	-3360	-134983
587	858	200	200	-3360	-134905
588	859	200	200	-3286	-134905
589	858	200	200	-3286	-134905
590	858	200	200	-3286	-134826
591	856	200	200	-3213	-134826
592	856	200	200	-3213	-134826
593	858	200	200	-3213	-134747
594	858	200	200	-3137	-134747
595	858	200	200	-3137	-134747
596	858	200	200	-3137	-134674
597	858	200	200	-3064	-134674
598	858	200	200	-3064	-134674
599	857	200	200	-3064	-134596
600	859	200	200	-2988	-134596
601	856	200	200	-2988	-134596
602	857	200	200	-2988	-134521
603	855	200	200	-2913	-134521
604	854	200	200	-2913	-134521
605	852	200	200	-2913	-134442
606	853	200	200	-2836	-134442
607	853	200	200	-2836	-134442
608	854	200	200	-2836	-134366
609	855	200	200	-2762	-134366
610	854	200	200	-2762	-134366
611	853	200	200	-2762	-134290
612	852	200	200	-2689	-134290
613	852	200	200	-2689	-134290
614	853	200	200	-2689	-134214
615	854	200	200	-2689	-134214
616	854	200	200	-2614	-134214
617	855	200	200	-2614	-134139
618	854	200	200	-2614	-134139
619	854	200	200	-2535	-134139
620	854	200	200	-2535	-134058
621	850	200	200	-2535	-134058
622	851	200	200	-2460	-134058
623	851	200	200	-2460	-133984
624	851	200	200	-2460	-133984
625	850	200	200	-2387	-133984
626	851	200	200	-2387	-133906
627	849	200	200	-2387	-133906
628	850	200	200	-2311	-133906
629	851	200	200	-2311	-133827
630	849	200	200	-2311	-133827
631	849	200	200	-2238	-133827
632	850	200	200	-2238	-133750
633	850	200	200	-2238	-133750
634	850	200	200	-2161	-133750
635	850	200	200	-2161	-133672
636	851	200	200	-2161	-133672
637	850	200	200	-2088	-133672
638	850	200	200	-2088	-133597
639	851	200	200	-2088	-133597
640	849	200	200	-2012	-133597
641	848	200	200	-2012	-133516
642	846	200	200	-2012	-133516
643	845	200	200	-1937	-133516
644	845	200	200	-1937	-133439
645	847	200	200	-1937	-133439
646	844	200	200	-1864	-133439
647	845	200	200	-1864	-133360
648	846	200	200	-1864	-133360
649	846	200	200	-1792	-133360
650	846	200	200	-1792	-133282
651	846	200	200	-1792	-133282
652	846	200	200	-1716	-133282
653	846	200	200	-1716	-133282
654	846	200	200	-1716	-133205
655	846	200	200	-1642	-133205
656	846	200	200	-1642	-133205
657	845	200	200	-1642	-133125
658	847	200	200	-1568	-133125
659	845	200	200	-1568	-133125
660	845	200	200	-1568	-133047
661	847	200	200	-1491	-133047
662	844	200	200	-1491	-133047
663	845	200	200	-1491	-132972
664	847	200	200	-1422	-132972
665	844	200	200	-1422	-132972
666	841	200	200	-1422	-132895
667	842	200	200	-1347	-132895
668	842	200	200	-1347	-132895
669	842	200	200	-1347	-132815
670	842	200	200	-1276	-132815
671	843	200	200	-1276	-132815
672	842	200	200	-1276	-132737
673	841	200	200	-1201	-132737
674	843	200	200	-1201	-132737
675	843	200	200	-1201	-132661
676	841	200	200	-1127	-132661
677	841	200	200	-1127	-132661
678	842	200	200	-1127	-132584
679	842	200	200	-1051	-132584
680	842	200	200	-1051	-132584
681	842	200	200	-1051	-132507
682	842	200	200	-978	-132507
683	842	200	200	-978	-132507
684	841	200	200	-978	-132429
685	843	200	200	-903	-132429
686	840	200	200	-903	-132429
687	840	200	200	-903	-132354
688	842	200	200	-827	-132354
689	841	200	200	-827	-132354
690	842	200	200	-827	-132277
691	842	200	200	-751	-132277
692	842	200	200	-751	-132277
693	842	200	200	-751	-132201
694	842	200	200	-677	-132201
695	842	200	200	-677	-132201
696	840	200	200	-677	-132125
697	840	200	200	-602	-132125
698	842	200	200	-602	-132125
699	842	200	200	-602	-132050
700	842	200	200	-524	-132050
701	843	200	200	-524	-132050
702	842	200	200	-524	-131973
703	841	200	200	-448	-131973
704	840	200	200	-448	-131973
705	841	200	200	-448	-131896
706	841	200	200	-372	-131896
707	842	200	200	-372	-131896
708	842	200	200	-372	-131819
709	842	200	200	-298	-131819
710	842	200	200	-298	-131819
711	843	200	200	-298	-131739
712	843	200	200	-221	-131739
713	843	200	200	-221	-131739
714	843	200	200	-221	-131666
715	842	200	200	-146	-131666
716	842	200	200	-146	-131666
717	842	200	200	-146	-131587
718	842	200	200	-71	-131587
719	842	200	200	-71	-131587
720	842	200	200	-71	-131510
721	842	200	200	4	-131510
722	842	200	200	4	-131510
723	840	200	200	4	-131432
724	840	200	200	79	-131432
725	842	200	200	79	-131432
726	842	200	200	79	-131352
727	841	200	200	154	-131352
728	842	200	200	154	-131352
729	842	200	200	154	-131276
730	842	200	200	225	-131276
731	842	200	200	225	-131276
732	842	200	200	225	-131197
733	840	200	200	225	-131197
734	840	200	200	303	-131197
735	841	200	200	303	-131120
736	842	200	200	303	-131120
737	842	200	200	374	-131120
738	842	200	200	374	-131040
739	843	200	200	374	-131040
740	843	200	200	448	-131040
741	842	200	200	448	-130964
742	843	200	200	448	-130964
743	843	200	200	524	-130964
744	842	200	200	524	-130889
745	842	200	200	524	-130889
746	843	200	200	597	-130889
747	842	200	200	597	-130811
748	842	200	200	597	-130811
749	842	200	200	670	-130811
750	842	200	200	670	-130732
751	841	200	200	670	-130732
752	840	200	200	743	-130732
753	840	200	200	743	-130654
754	841	200	200	743	-130654
755	842	200	200	818	-130654
756	842	200	200	818	-130581
757	842	200	200	818	-130581
758	842	200	200	891	-130581
759	842	200	200	891	-130503
760	843	200	200	891	-130503
761	842	200	200	967	-130503
762	841	200	200	967	-130429
763	841	200	200	967	-130429
764	841	200	200	1041	-130429
765	841	200	200	1041	-130351
766	842	200	200	1041	-130351
767	843	200	200	1117	-130351
768	847	200	200	1117	-130351
769	847	200	200	1117	-130275
770	846	200	200	1192	-130275
771	846	200	200	1192	-130275
772	846	200	200	1192	-130200
773	846	200	200	1269	-130200
774	846	200	200	1269	-130200
775	845	200	200	1269	-130124
776	845	200	200	1343	-130124
777	846	200	200	1343	-130124
778	846	200	200	1343	-130052
779	845	200	200	1417	-130052
780	845	200	200	1417	-130052
781	847	200	200	1417	-129972
782	845	200	200	1494	-129972
783	845	200	200	1494	-129972
784	846	200	200	1494	-129898
785	845	200	200	1572	-129898
786	845	200	200	1572	-129898
787	847	200	200	1572	-129821
788	846	200	200	1649	-129821
789	846	200	200	1649	-129821
790	847	200	200	1649	-129743
791	846	200	200	1722	-129743
792	846	200	200	1722	-129743
793	846	200	200	1722	-129667
794	847	200	200	1799	-129667
795	844	200	200	1799	-129667
796	845	200	200	1799	-129591
797	847	200	200	1873	-129591
798	845	200	200	1873	-129591
799	846	200	200	1873	-129515
800	846	200	200	1951	-129515
801	846	200	200	1951	-129515
802	846	200	200	1951	-129435
803	846	200	200	2025	-129435
804	846	200	200	2025	-129435
805	846	200	200	2025	-129359
806	846	200	200	2101	-129359
807	847	200	200	2101	-129359
808	846	200	200	2101	-129280
809	847	200	200	2176	-129280
810	846	200	200	2176	-129280
811	844	200	200	2176	-129204
812	846	200	200	2247	-129204
813	845	200	200	2247	-129204
814	846	200	200	2247	-129126
815	845	200	200	2325	-129126
816	846	200	200	2325	-129126
817	846	200	200	2325	-129048
818	846	200	200	2398	-129048
819	846	200	200	2398	-129048
820	848	200	200	2398	-128970
821	850	200	200	2472	-128970
822	849	200	200	2472	-128970
823	850	200	200	2472	-128896
824	850	200	200	2546	-128896
825	850	200	200	2546	-128896
826	851	200	200	2546	-128819
827	849	200	200	2621	-128819
828	850	200	200	2621	-128819
829	850	200	200	2621	-128740
830	850	200	200	2690	-128740
831	850	200	200	2690	-128740
832	850	200	200	2690	-128663
833	850	200	200	2765	-128663
834	849	200	200	2765	-128663
835	850	200	200	2765	-128586
836	850	200	200	2765	-128586
837	849	200	200	2837	-128586
838	851	200	200	2837	-128513
839	849	200	200	2837	-128513
840	850	200	200	2912	-128513
841	849	200	200	2912	-128434
842	849	200	200	2912	-128434
843	849	200	200	2987	-128434
844	850	200	200	2987	-128358
845	850	200	200	2987	-128358
846	850	200	200	3060	-128358
847	850	200	200	3060	-128282
848	851	200	200	3060	-128282
849	848	200	200	3134	-128282
850	848	200	200	3134	-128206
851	854	200	200	3134	-128206
852	854	200	200	3210	-128206
853	854	200	200	3210	-128132
854	854	200	200	3210	-128132
855	854	200	200	3287	-128132
856	853	200	200	3287	-128055
857	854	200	200	3287	-128055
858	852	200	200	3363	-128055
859	853	200	200	3363	-127981
860	854	200	200	3363	-127981
861	854	200	200	3436	-127981
862	854	200	200	3436	-127902
863	851	200	200	3436	-127902
864	854	200	200	3511	-127902
865	852	200	200	3511	-127829
866	853	200	200	3511	-127829
867	854	200	200	3589	-127829
868	854	200	200	3589	-127752
869	853	200	200	3589	-127752
870	854	200	200	3665	-127752
871	854	200	200	3665	-127752
872	854	200	200	3665	-127673
873	855	200	200	3740	-127673
874	858	200	200	3740	-127673
875	858	200	200	3740	-127598
876	858	200	200	3815	-127598
877	857	200	200	3815	-127598
878	858	200	200	3815	-127520
879	859	200	200	3889	-127520
880	859	200	200	3889	-127520
881	859	200	200	3889	-127446
882	859	200	200	3964	-127446
883	858	200	200	3964	-127446
884	858	200	200	3964	-127366
885	858	200	200	4039	-127366
886	859	200	200	4039	-127366
887	859	200	200	4039	-127289
888	858	200	200	4115	-127289
889	858	200	200	4115	-127289
890	858	200	200	4115	-127211
891	856	200	200	4190	-127211
892	859	200	200	4190	-127211
893	858	200	200	4190	-127134
894	858	200	200	4264	-127134
895	858	200	200	4264	-127134
896	859	200	200	4264	-127057
897	861	200	200	4336	-127057
898	863	200	200	4336	-127057
899	862	200	200	4336	-126978
900	862	200	200	4412	-126978
901	862	200	200	4412	-126978
902	862	200	200	4412	-126901
903	862	200	200	4484	-126901
904	862	200	200	4484	-126901
905	863	200	200	4484	-126826
906	863	200	200	4558	-126826
907	860	200	200	4558	-126826
908	860	200	200	4558	-126750
909	862	200	200	4635	-126750
910	862	200	200	4635	-126750
911	862	200	200	4635	-126671
912	862	200	200	4706	-126671
913	861	200	200	4706	-126671
914	862	200	200	4706	-126594
915	860	200	200	4781	-126594
916	861	200	200	4781	-126594
917	861	200	200	4781	-126518
918	862	200	200	4851	-126518
919	862	200	200	4851	-126518
920	862	200	200	4851	-126441
921	862	200	200	4926	-126441
922	865	200	200	4926	-126441
923	866	200	200	4926	-126365
924	865	200	200	4999	-126365
925	867	200	200	4999	-126365
926	866	200	200	4999	-126288
927	866	200	200	5075	-126288
928	866	200	200	5075	-126288
929	866	200	200	5075	-126213
930	866	200	200	5148	-126213
931	867	200	200	5148	-126213
932	866	200	200	5148	-126135
933	866	200	200	5223	-126135
934	865	200	200	5223	-126135
935	865	200	200	5223	-126060
936	866	200	200	5298	-126060
937	865	200	200	5298	-126060
938	866	200	200	5298	-125984
939	865	200	200	5373	-125984
940	866	200	200	5373	-125984
941	865	200	200	5373	-125908
942	866	200	200	5447	-125908
943	865	200	200	5447	-125908
944	866	200	200	5447	-125830
945	866	200	200	5521	-125830
946	866	200	200	5521	-125830
947	866	200	200	5521	-125753
948	866	200	200	5597	-125753
949	866	200	200	5597	-125753
950	866	200	200	5597	-125675
951	866	200	200	5674	-125675
952	866	200	200	5674	-125675
953	866	200	200	5674	-125595
954	866	200	200	5674	-125595
955	865	200	200	5750	-125595
956	866	200	200	5750	-125521
957	866	200	200	5750	-125521
958	865	200	200	5822	-125521
959	865	200	200	5822	-125442
960	861	200	200	5822	-125442
961	862	200	200	5899	-125442
962	860	200	200	5899	-125364
963	861	200	200	5899	-125364
964	861	200	200	5972	-125364
965	863	200	200	5972	-125286
966	862	200	200	5972	-125286
967	862	200	200	6049	-125286
968	862	200	200	6049	-125205
969	862	200	200	6049	-125205
970	862	200	200	6122	-125205
971	862	200	200	6122	-125129
972	861	200	200	6122	-125129
973	862	200	200	6196	-125129
974	860	200	200	6196	-125050
975	861	200	200	6196	-125050
976	862	200	200	6271	-125050
977	860	200	200	6271	-124972
978	858	200	200	6271	-124972
979	859	200	200	6342	-124972
980	858	200	200	6342	-124893
981	858	200	200	6342	-124893
982	858	200	200	6419	-124893
983	858	200	200	6419	-124817
984	858	200	200	6419	-124817
985	858	200	200	6492	-124817
986	858	200	200	6492	-124741
987	858	200	200	6492	-124741
988	857	200	200	6565	-124741
989	857	200	200	6565	-124663
990	856	200	200	6565	-124663
991	858	200	200	6639	-124663
992	855	200	200	6639	-124583
993	854	200	200	6639	-124583
994	853	200	200	6714	-124583
995	854	200	200	6714	-124583
996	854	200	200	6714	-124505
997	853	200	200	6783	-124505
998	854	200	200	6783	-124505
999	854	200	200	6783	-124432
1000	854	200	200	6858	-124432
1001	854	200	200	6858	-124432
1002	853	200	200	6858	-124353
1003	853	200	200	6930	-124353
1004	852	200	200	6930	-124353
1005	850	200	200	6930	-124278
1006	850	200	200	7005	-124278
1007	851	200	200	7005	-124278
1008	850	200	200	7005	-124199
1009	850	200	200	7080	-124199
1010	848	200	200	7080	-124199
1011	848	200	200	7080	-124123
1012	850	200	200	7153	-124123
1013	850	200	200	7153	-124123
1014	850	200	200	7153	-124048
1015	850	200	200	7227	-124048
1016	846	200	200	7227	-124048
1017	847	200	200	7227	-123971
1018	845	200	200	7301	-123971
1019	846	200	200	7301	-123971
1020	845	200	200	7301	-123897
1021	846	200	200	7378	-123897
1022	847	200	200	7378	-123897
1023	847	200	200	7378	-123816
1024	847	200	200	7453	-123816
1025	846	200	200	7453	-123816
1026	845	200	200	7453	-123742
1027	841	200	200	7526	-123742
1028	843	200	200	7526	-123742
1029	843	200	200	7526	-123664
1030	843	200	200	7600	-123664
1031	841	200	200	7600	-123664
1032	840	200	200	7600	-123585
1033	843	200	200	7677	-123585
1034	841	200	200	7677	-123585
1035	841	200	200	7677	-123509
1036	842	200	200	7753	-123509
1037	842	200	200	7753	-123509
1038	838	200	200	7753	-123430
1039	836	200	200	7828	-123430
1040	838	200	200	7828	-123430
1041	839	200	200	7828	-123354
1042	838	200	200	7901	-123354
1043	838	200	200	7901	-123354
1044	838	200	200	7901	-123274
1045	838	200	200	7977	-123274
1046	837	200	200	7977	-123274
1047	838	200	200	7977	-123196
1048	839	200	200	8052	-123196
1049	837	200	200	8052	-123196
1050	835	200	200	8052	-123116
1051	834	200	200	8126	-123116
1052	832	200	200	8126	-123116
1053	834	200	200	8126	-123038
1054	834	200	200	8201	-123038
1055	834	200	200	8201	-123038
1056	834	200	200	8201	-122961
1057	834	200	200	8275	-122961
1058	834	200	200	8275	-122961
1059	834	200	200	8275	-122881
1060	833	200	200	8350	-122881
1061	835	200	200	8350	-122881
1062	835	200	200	8350	-122803
1063	831	200	200	8420	-122803
1064	830	200	200	8420	-122803
1065	830	200	200	8420	-122727
1066	828	200	200	8497	-122727
1067	831	200	200	8497	-122727
1068	831	200	200	8497	-122650
1069	831	200	200	8497	-122650
1070	829	200	200	8568	-122650
1071	829	200	200	8568	-122570
1072	829	200	200	8568	-122570
1073	830	200	200	8642	-122570
1074	831	200	200	8642	-122492
1075	830	200	200	8642	-122492
1076	828	200	200	8717	-122492
1077	831	200	200	8717	-122416
1078	830	200	200	8717	-122416
1079	826	200	200	8789	-122416
1080	826	200	200	8789	-122338
1081	826	200	200	8789	-122338
1082	826	200	200	8861	-122338
1083	827	200	200	8861	-122262
1084	825	200	200	8861	-122262
1085	826	200	200	8933	-122262
1086	826	200	200	8933	-122183
1087	825	200	200	8933	-122183
1088	827	200	200	9008	-122183
1089	827	200	200	9008	-122108
1090	826	200	200	9008	-122108
1091	826	200	200	9079	-122108
1092	826	200	200	9079	-122029
1093	825	200	200	9079	-122029
1094	825	200	200	9154	-122029
1095	825	200	200	9154	-121953
1096	827	200	200	9154	-121953
1097	826	200	200	9227	-121953
1098	826	200	200	9227	-121877
1099	826	200	200	9227	-121877
1100	826	200	200	9302	-121877
1101	826	200	200	9302	-121798
1102	824	200	200	9302	-121798
1103	822	200	200	9376	-121798
1104	822	200	200	9376	-121722
1105	822	200	200	9376	-121722
1106	821	200	200	9452	-121722
1107	821	200	200	9452	-121644
1108	822	200	200	9452	-121644
1109	822	200	200	9525	-121644
1110	822	200	200	9525	-121566
1111	821	200	200	9525	-121566
1112	822	200	200	9597	-121566
1113	822	200	200	9597	-121566
1114	822	200	200	9597	-121487
1115	822	200	200	9672	-121487
1116	821	200	200	9672	-121487
1117	822	200	200	9672	-121411
1118	822	200	200	9750	-121411
1119	822	200	200	9750	-121411
1120	821	200	200	9750	-121333
1121	822	200	200	9826	-121333
1122	821	200	200	9826	-121333
1123	821	200	200	9826	-121253
1124	822	200	200	9899	-121253
1125	821	200	200	9899	-121253
1126	821	200	200	9899	-121175
1127	822	200	200	9974	-121175
1128	822	200	200	9974	-121175
1129	821	200	200	9974	-121095
1130	822	200	200	10047	-121095
1131	821	200	200	10047	-121095
1132	822	200	200	10047	-121019
1133	822	200	200	10123	-121019
1134	821	200	200	10123	-121019
1135	821	200	200	10123	-120939
1136	821	200	200	10196	-120939
1137	821	200	200	10196	-120939
1138	821	200	200	10196	-120860
1139	822	200	200	10272	-120860
1140	821	200	200	10272	-120860
1141	822	200	200	10272	-120781
1142	820	200	200	10346	-120781
1143	821	200	200	10346	-120781
1144	821	200	200	10346	-120705
1145	820	200	200	10418	-120705
1146	822	200	200	10418	-120705
1147	821	200	200	10418	-120627
1148	822	200	200	10490	-120627
1149	821	200	200	10490	-120627
1150	823	200	200	10490	-120547
1151	822	200	200	10566	-120547
1152	822	200	200	10566	-120547
1153	820	200	200	10566	-120468
1154	822	200	200	10638	-120468
1155	821	200	200	10638	-120468
1156	822	200	200	10638	-120391
1157	822	200	200	10711	-120391
1158	822	200	200	10711	-120391
1159	821	200	200	10711	-120315
1160	822	200	200	10787	-120315
1161	821	200	200	10787	-120315
1162	822	200	200	10787	-120236
1163	822	200	200	10857	-120236
1164	822	200	200	10857	-120236
1165	822	200	200	10857	-120158
1166	822	200	200	10930	-120158
1167	821	200	200	10930	-120158
1168	822	200	200	10930	-120082
1169	822	200	200	11000	-120082
1170	822	200	200	11000	-120082
1171	822	200	200	11000	-120004
1172	822	200	200	11075	-120004
1173	821	200	200	11075	-120004
1174	822	200	200	11075	-119928
1175	821	200	200	11148	-119928
1176	821	200	200	11148	-119928
1177	821	200	200	11148	-119851
1178	821	200	200	11223	-119851
1179	822	200	200	11223	-119851
1180	822	200	200	11223	-119775
1181	821	200	200	11294	-119775
1182	820	200	200	11294	-119775
1183	821	200	200	11294	-119695
1184	822	200	200	11369	-119695
1185	823	200	200	11369	-119695
1186	822	200	200	11369	-119619
1187	820	200	200	11369	-119619
1188	822	200	200	11443	-119619
1189	822	200	200	11443	-119542
1190	822	200	200	11443	-119542
1191	823	200	200	11517	-119542
1192	820	200	200	11517	-119461
1193	821	200	200	11517	-119461
1194	822	200	200	11590	-119461
1195	822	200	200	11590	-119387
1196	822	200	200	11590	-119387
1197	822	200	200	11664	-119387
1198	819	200	200	11664	-119307
1199	819	200	200	11664	-119307
1200	822	200	200	11739	-119307
1201	822	200	200	11739	-119230
1202	822	200	200	11739	-119230
1203	826	200	200	11816	-119230
1204	826	200	200	11816	-119151
1205	824	200	200	11816	-119151
1206	826	200	200	11891	-119151
1207	826	200	200	11891	-119070
1208	826	200	200	11891	-119070
1209	827	200	200	11963	-119070
1210	826	200	200	11963	-118994
1211	825	200	200	11963	-118994
1212	826	200	200	12038	-118994
1213	826	200	200	12038	-118915
1214	827	200	200	12038	-118915
1215	826	200	200	12111	-118915
1216	826	200	200	12111	-118837
1217	824	200	200	12111	-118837
1218	826	200	200	12188	-118837
1219	826	200	200	12188	-118757
1220	826	200	200	12188	-118757
1221	826	200	200	12260	-118757
1222	826	200	200	12260	-118680
1223	824	200	200	12260	-118680
1224	827	200	200	12335	-118680
1225	827	200	200	12335	-118604
1226	826	200	200	12335	-118604
1227	826	200	200	12408	-118604
1228	825	200	200	12408	-118526
1229	827	200	200	12408	-118526
1230	830	200	200	12480	-118526
1231	830	200	200	12480	-118526
1232	830	200	200	12480	-118446
1233	830	200	200	12554	-118446
1234	830	200	200	12554	-118446
1235	829	200	200	12554	-118367
1236	830	200	200	12626	-118367
1237	830	200	200	12626	-118367
1238	830	200	200	12626	-118293
1239	829	200	200	12699	-118293
1240	829	200	200	12699	-118293
1241	829	200	200	12699	-118214
1242	829	200	200	12772	-118214
1243	830	200	200	12772	-118214
1244	830	200	200	12772	-118138
1245	831	200	200	12847	-118138
1246	830	200	200	12847	-118138
1247	831	200	200	12847	-118059
1248	830	200	200	12916	-118059
1249	834	200	200	12916	-118059
1250	834	200	200	12916	-117982
1251	834	200	200	12989	-117982
1252	834	200	200	12989	-117982
1253	834	200	200	12989	-117906
1254	834	200	200	13060	-117906
1255	834	200	200	13060	-117906
1256	834	200	200	13060	-117829
1257	833	200	200	13135	-117829
1258	834	200	200	13135	-117829
1259	834	200	200	13135	-117754
1260	835	200	200	13208	-117754
1261	834	200	200	13208	-117754
1262	834	200	200	13208	-117673
1263	835	200	200	13283	-117673
1264	836	200	200	13283	-117673
1265	838	200	200	13283	-117598
1266	838	200	200	13357	-117598
1267	838	200	200	13357	-117598
1268	837	200	200	13357	-117521
1269	838	200	200	13430	-117521
1270	837	200	200	13430	-117521
1271	837	200	200	13430	-117441
1272	837	200	200	13505	-117441
1273	839	200	200	13505	-117441
1274	837	200	200	13505	-117365
1275	838	200	200	13581	-117365
1276	837	200	200	13581	-117365
1277	837	200	200	13581	-117286
1278	838	200	200	13654	-117286
1279	839	200	200	13654	-117286
1280	843	200	200	13654	-117210
1281	843	200	200	13728	-117210
1282	842	200	200	13728	-117210
1283	841	200	200	13728	-117130
1284	842	200	200	13805	-117130
1285	842	200	200	13805	-117130
1286	841	200	200	13805	-117052
1287	842	200	200	13881	-117052
1288	842	200	200	13881	-117052
1289	842	200	200	13881	-116973
1290	841	200	200	13956	-116973
1291	842	200	200	13956	-116973
1292	842	200	200	13956	-116895
1293	842	200	200	14028	-116895
1294	845	200	200	14028	-116895
1295	845	200	200	14028	-116817
1296	847	200	200	14105	-116817
1297	846	200	200	14105	-116817
1298	847	200	200	14105	-116737
1299	846	200	200	14178	-116737
1300	844	200	200	14178	-116737
1301	846	200	200	14178	-116659
1302	846	200	200	14253	-116659
1303	846	200	200	14253	-116659
1304	846	200	200	14253	-116583
1305	846	200	200	14327	-116583
1306	845	200	200	14327	-116583
1307	846	200	200	14327	-116506
1308	847	200	200	14327	-116506
1309	846	200	200	14401	-116506
1310	844	200	200	14401	-116426
1311	847	200	200	14401	-116426
1312	848	200	200	14476	-116426
1313	850	200	200	14476	-116347
1314	850	200	200	14476	-116347
1315	850	200	200	14547	-116347
1316	849	200	200	14547	-116271
1317	848	200	200	14547	-116271
1318	849	200	200	14624	-116271
1319	850	200	200	14624	-116193
1320	851	200	200	14624	-116193
1321	849	200	200	14695	-116193
1322	850	200	200	14695	-116117
1323	849	200	200	14695	-116117
1324	850	200	200	14769	-116117
1325	851	200	200	14769	-116038
1326	850	200	200	14769	-116038
1327	848	200	200	14842	-116038
1328	850	200	200	14842	-115963
1329	850	200	200	14842	-115963
1330	851	200	200	14916	-115963
1331	851	200	200	14916	-115885
1332	848	200	200	14916	-115885
1333	850	200	200	14987	-115885
1334	854	200	200	14987	-115808
1335	853	200	200	14987	-115808
1336	854	200	200	15060	-115808
1337	854	200	200	15060	-115732
1338	852	200	200	15060	-115732
1339	854	200	200	15133	-115732
1340	854	200	200	15133	-115654
1341	854	200	200	15133	-115654
1342	854	200	200	15206	-115654
1343	854	200	200	15206	-115578
1344	854	200	200	15206	-115578
1345	855	200	200	15281	-115578
1346	854	200	200	15281	-115500
1347	854	200	200	15281	-115500
1348	854	200	200	15353	-115500
1349	853	200	200	15353	-115500
1350	854	200	200	15353	-115423
1351	852	200	200	15427	-115423
1352	854	200	200	15427	-115423
1353	854	200	200	15427	-115343
1354	854	200	200	15501	-115343
1355	854	200	200	15501	-115343
1356	853	200	200	15501	-115268
1357	854	200	200	15577	-115268
1358	854	200	200	15577	-115268
1359	853	200	200	15577	-115190
1360	851	200	200	15651	-115190
1361	853	200	200	15651	-115190
1362	854	200	200	15651	-115110
1363	855	200	200	15724	-115110
1364	854	200	200	15724	-115110
1365	854	200	200	15724	-115033
1366	854	200	200	15798	-115033
1367	853	200	200	15798	-115033
1368	854	200	200	15798	-114952
1369	854	200	200	15875	-114952
1370	852	200	200	15875	-114952
1371	854	200	200	15875	-114876
1372	852	200	200	15951	-114876
1373	854	200	200	15951	-114876
1374	854	200	200	15951	-114797
1375	854	200	200	16025	-114797
1376	854	200	200	16025	-114797
1377	854	200	200	16025	-114718
1378	853	200	200	16099	-114718
1379	853	200	200	16099	-114718
1380	853	200	200	16099	-114639
1381	854	200	200	16173	-114639
1382	857	200	200	16173	-114639
1383	857	200	200	16173	-114563
1384	859	200	200	16248	-114563
1385	858	200	200	16248	-114563
1386	858	200	200	16248	-114486
1387	857	200	200	16321	-114486
1388	857	200	200	16321	-114486
1389	858	200	200	16321	-114406
1390	857	200	200	16396	-114406
1391	858	200	200	16396	-114406
1392	857	200	200	16396	-114327
1393	859	200	200	16470	-114327
1394	858	200	200	16470	-114327
1395	858	200	200	16470	-114250
1396	859	200	200	16544	-114250
1397	859	200	200	16544	-114250
1398	858	200	200	16544	-114175
1399	858	200	200	16615	-114175
1400	858	200	200	16615	-114175
1401	858	200	200	16615	-114096
1402	858	200	200	16691	-114096
1403	858	200	200	16691	-114096
1404	858	200	200	16691	-114018
1405	858	200	200	16761	-114018
1406	859	200	200	16761	-114018
1407	856	200	200	16761	-113941
1408	856	200	200	16834	-113941
1409	858	200	200	16834	-113941
1410	858	200	200	16834	-113863
1411	858	200	200	16909	-113863
1412	858	200	200	16909	-113863
1413	858	200	200	16909	-113788
1414	858	200	200	16981	-113788
1415	858	200	200	16981	-113788
1416	858	200	200	16981	-113710
1417	858	200	200	17052	-113710
1418	858	200	200	17052	-113710
1419	858	200	200	17052	-113634
1420	857	200	200	17125	-113634
1421	858	200	200	17125	-113634
1422	858	200	200	17125	-113554
1423	857	200	200	17199	-113554
1424	859	200	200	17199	-113554
1425	858	200	200	17199	-113478
1426	858	200	200	17199	-113478
1427	856	200	200	17270	-113478
1428	858	200	200	17270	-113400
1429	857	200	200	17270	-113400
1430	858	200	200	17345	-113400
1431	858	200	200	17345	-113319
1432	857	200	200	17345	-113319
1433	856	200	200	17417	-113319
1434	854	200	200	17417	-113245
1435	854	200	200	17417	-113245
1436	854	200	200	17492	-113245
1437	854	200	200	17492	-113165
1438	853	200	200	17492	-113165
1439	854	200	200	17566	-113165
1440	853	200	200	17566	-113088
1441	854	200	200	17566	-113088
1442	853	200	200	17642	-113088
1443	853	200	200	17642	-113008
1444	853	200	200	17642	-113008
1445	853	200	200	17715	-113008
1446	854	200	200	17715	-112928
1447	852	200	200	17715	-112928
1448	854	200	200	17787	-112928
1449	853	200	200	17787	-112851
1450	854	200	200	17787	-112851
1451	851	200	200	17862	-112851
1452	854	200	200	17862	-112772
1453	853	200	200	17862	-112772
1454	854	200	200	17939	-112772
1455	854	200	200	17939	-112694
1456	854	200	200	17939	-112694
1457	854	200	200	18014	-112694
1458	852	200	200	18014	-112614
1459	851	200	200	18014	-112614
1460	853	200	200	18087	-112614
1461	854	200	200	18087	-112537
1462	854	200	200	18087	-112537
1463	852	200	200	18162	-112537
1464	854	200	200	18162	-112461
1465	854	200	200	18162	-112461
1466	854	200	200	18235	-112461
1467	854	200	200	18235	-112461
1468	853	200	200	18235	-112382
1469	854	200	200	18310	-112382
1470	853	200	200	18310	-112382
1471	854	200	200	18310	-112302
1472	854	200	200	18383	-112302
1473	854	200	200	18383	-112302
1474	854	200	200	18383	-112223
1475	854	200	200	18458	-112223
1476	853	200	200	18458	-112223
1477	854	200	200	18458	-112149
1478	854	200	200	18532	-112149
1479	853	200	200	18532	-112149
1480	852	200	200	18532	-112070
1481	853	200	200	18604	-112070
1482	854	200	200	18604	-112070
1483	854	200	200	18604	-111995
1484	854	200	200	18675	-111995
1485	854	200	200	18675	-111995
1486	853	200	200	18675	-111915
1487	854	200	200	18750	-111915
1488	854	200	200	18750	-111915
1489	850	200	200	18750	-111839
1490	852	200	200	18821	-111839
1491	853	200	200	18821	-111839
1492	854	200	200	18821	-111763
1493	854	200	200	18894	-111763
1494	854	200	200	18894	-111763
1495	854	200	200	18894	-111686
1496	854	200	200	18969	-111686
1497	853	200	200	18969	-111686
1498	851	200	200	18969	-111611
1499	850	200	200	19040	-111611
1500	849	200	200	19040	-111611
1501	850	200	200	19040	-111530
1502	849	200	200	19113	-111530
1503	851	200	200	19113	-111530
1504	851	200	200	19113	-111455
1505	851	200	200	19183	-111455
1506	849	200	200	19183	-111455
1507	848	200	200	19183	-111377
1508	848	200	200	19257	-111377
1509	851	200	200	19257	-111377
1510	850	200	200	19257	-111297
1511	850	200	200	19328	-111297
1512	850	200	200	19328	-111297
1513	850	200	200	19328	-111221
1514	850	200	200	19403	-111221
1515	850	200	200	19403	-111221
1516	851	200	200	19403	-111141
1517	847	200	200	19475	-111141
1518	849	200	200	19475	-111141
1519	849	200	200	19475	-111066
1520	850	200	200	19549	-111066
1521	851	200	200	19549	-111066
1522	850	200	200	19549	-110985
1523	850	200	200	19624	-110985
1524	851	200	200	19624	-110985
1525	850	200	200	19624	-110907
1526	850	200	200	19698	-110907
1527	851	200	200	19698	-110907
1528	849	200	200	19698	-110828
1529	850	200	200	19771	-110828
1530	849	200	200	19771	-110828
1531	851	200	200	19771	-110749
1532	850	200	200	19844	-110749
1533	850	200	200	19844	-110749
1534	849	200	200	19844	-110672
1535	851	200	200	19919	-110672
1536	850	200	200	19919	-110672
1537	849	200	200	19919	-110592
1538	849	200	200	19996	-110592
1539	849	200	200	19996	-110592
1540	850	200	200	19996	-110514
1541	849	200	200	20071	-110514
1542	850	200	200	20071	-110514
1543	850	200	200	20071	-110438
1544	851	200	200	20143	-110438
1545	850	200	200	20143	-110438
1546	850	200	200	20143	-110360
1547	850	200	200	20143	-110360
1548	849	200	200	20218	-110360
1549	845	200	200	20218	-110280
1550	846	200	200	20218	-110280
1551	846	200	200	20291	-110280
1552	845	200	200	20291	-110202
1553	846	200	200	20291	-110202
1554	846	200	200	20367	-110202
1555	846	200	200	20367	-110126
1556	846	200	200	20367	-110126
1557	846	200	200	20439	-110126
1558	845	200	200	20439	-110048
1559	847	200	200	20439	-110048
1560	845	200	200	20515	-110048
1561	846	200	200	20515	-109972
1562	845	200	200	20515	-109972
1563	846	200	200	20588	-109972
1564	846	200	200	20588	-109893
1565	845	200	200	20588	-109893
1566	847	200	200	20660	-109893
1567	845	200	200	20660	-109818
1568	847	200	200	20660	-109818
1569	845	200	200	20732	-109818
1570	846	200	200	20732	-109740
1571	845	200	200	20732	-109740
1572	846	200	200	20807	-109740
1573	846	200	200	20807	-109663
1574	845	200	200	20807	-109663
1575	846	200	200	20879	-109663
1576	846	200	200	20879	-109588
1577	846	200	200	20879	-109588
1578	845	200	200	20952	-109588
1579	846	200	200	20952	-109509
1580	846	200	200	20952	-109509
1581	846	200	200	21028	-109509
1582	845	200	200	21028	-109433
1583	846	200	200	21028	-109433
1584	847	200	200	21097	-109433
1585	846	200	200	21097	-109433
1586	846	200	200	21097	-109355
1587	846	200	200	21170	-109355
1588	847	200	200	21170	-109355
1589	846	200	200	21170	-109277
1590	846	200	200	21240	-109277
1591	846	200	200	21240	-109277
1592	847	200	200	21240	-109198
1593	846	200	200	21314	-109198
1594	846	200	200	21314	-109198
1595	845	200	200	21314	-109122
1596	846	200	200	21386	-109122
1597	847	200	200	21386	-109122
1598	845	200	200	21386	-109044
1599	846	200	200	21461	-109044
1600	846	200	200	21461	-109044
1601	846	200	200	21461	-108964
1602	846	200	200	21532	-108964
1603	846	200	200	21532	-108964
1604	845	200	200	21532	-108887
1605	845	200	200	21606	-108887
1606	847	200	200	21606	-108887
1607	844	200	200	21606	-108806
1608	846	200	200	21680	-108806
1609	844	200	200	21680	-108806
1610	846	200	200	21680	-108730
1611	847	200	200	21755	-108730
1612	846	200	200	21755	-108730
1613	846	200	200	21755	-108651
1614	845	200	200	21827	-108651
1615	845	200	200	21827	-108651
1616	846	200	200	21827	-108572
1617	847	200	200	21901	-108572
1618	846	200	200	21901	-108572
1619	846	200	200	21901	-108493
1620	846	200	200	21976	-108493
1621	847	200	200	21976	-108493
1622	845	200	200	21976	-108417
1623	846	200	200	22052	-108417
1624	847	200	200	22052	-108417
1625	847	200	200	22052	-108340
1626	846	200	200	22127	-108340
1627	846	200	200	22127	-108340
1628	846	200	200	22127	-108260
1629	843	200	200	22199	-108260
1630	847	200	200	22199	-108260
1631	846	200	200	22199	-108182
1632	846	200	200	22274	-108182
1633	845	200	200	22274	-108182
1634	846	200	200	22274	-108104
1635	847	200	200	22347	-108104
1636	846	200	200	22347	-108104
1637	847	200	200	22347	-108029
1638	846	200	200	22424	-108029
1639	844	200	200	22424	-108029
1640	845	200	200	22424	-107950
1641	846	200	200	22496	-107950
1642	846	200	200	22496	-107950
1643	846	200	200	22496	-107872
1644	846	200	200	22572	-107872
1645	846	200	200	22572	-107872
1646	844	200	200	22572	-107795
1647	846	200	200	22645	-107795
1648	844	200	200	22645	-107795
1649	846	200	200	22645	-107717
1650	846	200	200	22717	-107717
1651	846	200	200	22717	-107717
1652	846	200	200	22717	-107642
1653	844	200	200	22790	-107642
1654	847	200	200	22790	-107642
1655	845	200	200	22790	-107564
1656	846	200	200	22863	-107564
1657	847	200	200	22863	-107564
1658	847	200	200	22863	-107489
1659	846	200	200	22936	-107489
1660	846	200	200	22936	-107489
1661	846	200	200	22936	-107409
1662	844	200	200	23010	-107409
1663	847	200	200	23010	-107409
1664	846	200	200	23010	-107333
1665	847	200	200	23010	-107333
1666	847	200	200	23085	-107333
1667	847	200	200	23085	-107255
1668	846	200	200	23085	-107255
1669	846	200	200	23154	-107255
1670	847	200	200	23154	-107174
1671	846	200	200	23154	-107174
1672	844	200	200	23227	-107174
1673	846	200	200	23227	-107100
1674	846	200	200	23227	-107100
1675	846	200	200	23298	-107100
1676	847	200	200	23298	-107020
1677	847	200	200	23298	-107020
1678	844	200	200	23372	-107020
1679	845	200	200	23372	-106943
1680	846	200	200	23372	-106943
1681	846	200	200	23445	-106943
1682	847	200	200	23445	-106863
1683	846	200	200	23445	-106863
1684	846	200	200	23519	-106863
1685	845	200	200	23519	-106783
1686	845	200	200	23519	-106783
1687	845	200	200	23591	-106783
1688	846	200	200	23591	-106706
1689	846	200	200	23591	-106706
1690	846	200	200	23664	-106706
1691	846	200	200	23664	-106628
1692	846	200	200	23664	-106628
1693	846	200	200	23739	-106628
1694	846	200	200	23739	-106550
1695	846	200	200	23739	-106550
1696	846	200	200	23813	-106550
1697	844	200	200	23813	-106470
1698	846	200	200	23813	-106470
1699	845	200	200	23886	-106470
1700	845	200	200	23886	-106470
1701	846	200	200	23886	-106393
1702	845	200	200	23960	-106393
1703	846	200	200	23960	-106393
1704	845	200	200	23960	-106317
1705	846	200	200	24036	-106317
1706	847	200	200	24036	-106317
1707	846	200	200	24036	-106239
1708	846	200	200	24112	-106239
1709	846	200	200	24112	-106239
1710	846	200	200	24112	-106160
1711	843	200	200	24187	-106160
1712	841	200	200	24187	-106160
1713	843	200	200	24187	-106081
1714	842	200	200	24259	-106081
1715	842	200	200	24259	-106081
1716	841	200	200	24259	-106007
1717	842	200	200	24336	-106007
1718	842	200	200	24336	-106007
1719	841	200	200	24336	-105929
1720	842	200	200	24409	-105929
1721	841	200	200	24409	-105929
1722	841	200	200	24409	-105854
1723	840	200	200	24486	-105854
1724	841	200	200	24486	-105854
1725	841	200	200	24486	-105775
1726	842	200	200	24559	-105775
1727	841	200	200	24559	-105775
1728	842	200	200	24559	-105699
1729	842	200	200	24633	-105699
1730	841	200	200	24633	-105699
1731	843	200	200	24633	-105623
1732	841	200	200	24708	-105623
1733	842	200	200	24708	-105623
1734	840	200	200	24708	-105547
1735	841	200	200	24778	-105547
1736	841	200	200	24778	-105547
1737	841	200	200	24778	-105473
1738	842	200	200	24855	-105473
1739	842	200	200	24855	-105473
1740	842	200	200	24855	-105392
1741	842	200	200	24926	-105392
1742	841	200	200	24926	-105392
1743	842	200	200	24926	-105317
1744	841	200	200	25000	-105317
1745	842	200	200	25000	-105317
1746	842	200	200	25000	-105240
1747	841	200	200	25072	-105240
1748	842	200	200	25072	-105240
1749	842	200	200	25072	-105161
1750	842	200	200	25146	-105161
1751	841	200	200	25146	-105161
1752	842	200	200	25146	-105084
1753	843	200	200	25215	-105084
1754	846	200	200	25215	-105084
1755	847	200	200	25215	-105006
1756	845	200	200	25289	-105006
1757	846	200	200	25289	-105006
1758	846	200	200	25289	-104930
1759	845	200	200	25360	-104930
1760	847	200	200	25360	-104930
1761	845	200	200	25360	-104850
1762	846	200	200	25435	-104850
1763	846	200	200	25435	-104850
1764	846	200	200	25435	-104772
1765	846	200	200	25508	-104772
1766	845	200	200	25508	-104772
1767	847	200	200	25508	-104693
1768	847	200	200	25581	-104693
1769	846	200	200	25581	-104693
1770	846	200	200	25581	-104615
1771	846	200	200	25654	-104615
1772	846	200	200	25654	-104615
1773	844	200	200	25654	-104537
1774	846	200	200	25727	-104537
1775	844	200	200	25727	-104537
1776	845	200	200	25727	-104458
1777	846	200	200	25802	-104458
1778	847	200	200	25802	-104458
1779	846	200	200	25802	-104380
1780	845	200	200	25876	-104380
1781	845	200	200	25876	-104380
1782	845	200	200	25876	-104304
1783	846	200	200	25876	-104304
1784	847	200	200	25948	-104304
1785	846	200	200	25948	-104227
1786	846	200	200	25948	-104227
1787	846	200	200	26022	-104227
1788	847	200	200	26022	-104146
1789	845	200	200	26022	-104146
1790	846	200	200	26098	-104146
1791	847	200	200	26098	-104068
1792	847	200	200	26098	-104068
1793	844	200	200	26172	-104068
1794	848	200	200	26172	-103991
1795	850	200	200	26172	-103991
1796	850	200	200	26247	-103991
1797	851	200	200	26247	-103914
1798	851	200	200	26247	-103914
1799	850	200	200	26319	-103914
1800	849	200	200	26319	-103837
1801	850	200	200	26319	-103837
1802	849	200	200	26395	-103837
1803	850	200	200	26395	-103759
1804	851	200	200	26395	-103759
1805	850	200	200	26467	-103759
1806	849	200	200	26467	-103683
1807	848	200	200	26467	-103683
1808	850	200	200	26542	-103683
1809	849	200	200	26542	-103605
1810	850	200	200	26542	-103605
1811	851	200	200	26614	-103605
1812	851	200	200	26614	-103528
1813	850	200	200	26614	-103528
1814	850	200	200	26688	-103528
1815	850	200	200	26688	-103452
1816	850	200	200	26688	-103452
1817	850	200	200	26761	-103452
1818	851	200	200	26761	-103452
1819	851	200	200	26761	-103374
1820	849	200	200	26831	-103374
1821	849	200	200	26831	-103374
1822	850	200	200	26831	-103297
1823	850	200	200	26908	-103297
1824	850	200	200	26908	-103297
1825	853	200	200	26908	-103219
1826	854	200	200	26979	-103219
1827	853	200	200	26979	-103219
1828	853	200	200	26979	-103141
1829	852	200	200	27052	-103141
1830	852	200	200	27052	-103141
1831	853	200	200	27052	-103061
1832	853	200	200	27124	-103061
1833	854	200	200	27124	-103061
1834	854	200	200	27124	-102986
1835	854	200	200	27198	-102986
1836	854	200	200	27198	-102986
1837	852	200	200	27198	-102907
1838	853	200	200	27266	-102907
1839	853	200	200	27266	-102907
1840	853	200	200	27266	-102828
1841	854	200	200	27339	-102828
1842	854	200	200	27339	-102828
1843	853	200	200	27339	-102750
1844	853	200	200	27410	-102750
1845	854	200	200	27410	-102750
1846	854	200	200	27410	-102669
1847	854	200	200	27484	-102669
1848	854	200	200	27484	-102669
1849	854	200	200	27484	-102593
1850	854	200	200	27557	-102593
1851	854	200	200	27557	-102593
1852	854	200	200	27557	-102514
1853	853	200	200	27628	-102514
1854	854	200	200	27628	-102514
1855	854	200	200	27628	-102434
1856	853	200	200	27701	-102434
1857	854	200	200	27701	-102434
1858	853	200	200	27701	-102355
1859	853	200	200	27773	-102355
1860	853	200	200	27773	-102355
1861	852	200	200	27773	-102280
1862	854	200	200	27848	-102280
1863	853	200	200	27848	-102280
1864	854	200	200	27848	-102202
1865	853	200	200	27922	-102202
1866	854	200	200	27922	-102202
1867	853	200	200	27922	-102123
1868	853	200	200	27994	-102123
1869	854	200	200	27994	-102123
1870	854	200	200	27994	-102044
1871	854	200	200	28067	-102044
1872	854	200	200	28067	-102044
1873	854	200	200	28067	-101966
1874	854	200	200	28143	-101966
1875	853	200	200	28143	-101966
1876	854	200	200	28143	-101891
1877	853	200	200	28217	-101891
1878	854	200	200	28217	-101891
1879	852	200	200	28217	-101812
1880	854	200	200	28291	-101812
1881	853	200	200	28291	-101812
1882	853	200	200	28291	-101735
1883	854	200	200	28362	-101735
1884	853	200	200	28362	-101735
1885	854	200	200	28362	-101658
1886	854	200	200	28438	-101658
1887	854	200	200	28438	-101658
1888	854	200	200	28438	-101581
1889	853	200	200	28510	-101581
1890	854	200	200	28510	-101581
1891	854	200	200	28510	-101506
1892	854	200	200	28585	-101506
1893	854	200	200	28585	-101506
1894	854	200	200	28585	-101428
1895	854	200	200	28657	-101428
1896	853	200	200	28657	-101428
1897	854	200	200	28657	-101353
1898	853	200	200	28657	-101353
1899	854	200	200	28730	-101353
1900	852	200	200	28730	-101273
1901	853	200	200	28730	-101273
1902	853	200	200	28803	-101273
1903	853	200	200	28803	-101198
1904	854	200	200	28803	-101198
1905	853	200	200	28872	-101198
1906	854	200	200	28872	-101120
1907	853	200	200	28872	-101120
1908	854	200	200	28948	-101120
1909	854	200	200	28948	-101040
1910	853	200	200	28948	-101040
1911	854	200	200	29019	-101040
1912	854	200	200	29019	-100966
1913	854	200	200	29019	-100966
1914	854	200	200	29092	-100966
1915	854	200	200	29092	-100886
1916	852	200	200	29092	-100886
1917	854	200	200	29164	-100886
1918	854	200	200	29164	-100810
1919	854	200	200	29164	-100810
1920	851	200	200	29238	-100810
1921	853	200	200	29238	-100730
1922	854	200	200	29238	-100730
1923	854	200	200	29305	-100730
1924	854	200	200	29305	-100650
1925	854	200	200	29305	-100650
1926	854	200	200	29378	-100650
1927	853	200	200	29378	-100573
1928	854	200	200	29378	-100573
1929	852	200	200	29449	-100573
1930	852	200	200	29449	-100495
1931	853	200	200	29449	-100495
1932	854	200	200	29522	-100495
1933	854	200	200	29522	-100418
1934	853	200	200	29522	-100418
1935	853	200	200	29594	-100418
1936	855	200	200	29594	-100338
1937	853	200	200	29594	-100338
1938	854	200	200	29668	-100338
1939	854	200	200	29668	-100338
1940	854	200	200	29668	-100261
1941	853	200	200	29740	-100261
1942	854	200	200	29740	-100261
1943	854	200	200	29740	-100185
1944	853	200	200	29812	-100185
1945	854	200	200	29812	-100185
1946	855	200	200	29812	-100107
1947	854	200	200	29886	-100107
1948	854	200	200	29886	-100107
1949	854	200	200	29886	-100027
1950	853	200	200	29960	-100027
1951	854	200	200	29960	-100027
1952	854	200	200	29960	-99948
1953	854	200	200	30031	-99948
1954	852	200	200	30031	-99948
1955	852	200	200	30031	-99874
1956	854	200	200	30104	-99874
1957	854	200	200	30104	-99874
1958	854	200	200	30104	-99795
1959	855	200	200	30179	-99795
1960	854	200	200	30179	-99795
1961	853	200	200	30179	-99720
1962	854	200	200	30254	-99720
1963	853	200	200	30254	-99720
1964	853	200	200	30254	-99640
1965	854	200	200	30328	-99640
1966	854	200	200	30328	-99640
1967	854	200	200	30328	-99564
1968	852	200	200	30398	-99564
1969	854	200	200	30398	-99564
1970	853	200	200	30398	-99487
1971	854	200	200	30473	-99487
1972	854	200	200	30473	-99487
1973	854	200	200	30473	-99410
1974	852	200	200	30545	-99410
1975	854	200	200	30545	-99410
1976	855	200	200	30545	-99336
1977	853	200	200	30621	-99336
1978	854	200	200	30621	-99336
1979	854	200	200	30621	-99255
1980	854	200	200	30692	-99255
1981	854	200	200	30692	-99255
1982	854	200	200	30692	-99179
1983	852	200	200	30766	-99179
1984	854	200	200	30766	-99179
1985	854	200	200	30766	-99101
1986	854	200	200	30839	-99101
1987	854	200	200	30839	-99101
1988	854	200	200	30839	-99022
1989	854	200	200	30909	-99022
1990	854	200	200	30909	-99022
1991	854	200	200	30909	-98945
1992	854	200	200	30981	-98945
1993	854	200	200	30981	-98945
1994	854	200	200	30981	-98867
1995	853	200	200	31053	-98867
1996	854	200	200	31053	-98867
1997	854	200	200	31053	-98790
1998	854	200	200	31125	-98790
1999	854	200	200	31125	-98790
2000	853	200	200	31125	-98709
2001	853	200	200	31197	-98709
2002	853	200	200	31197	-98709
2003	854	200	200	31197	-98632
2004	853	200	200	31271	-98632
2005	854	200	200	31271	-98632
2006	854	200	200	31271	-98552
2007	853	200	200	31339	-98552
2008	854	200	200	31339	-98552
2009	854	200	200	31339	-98474
2010	854	200	200	31411	-98474
2011	853	200	200	31411	-98474
2012	851	200	200	31411	-98396
2013	850	200	200	31480	-98396
2014	850	200	200	31480	-98396
2015	850	200	200	31480	-98317
2016	850	200	200	31480	-98317
2017	851	200	200	31553	-98317
2018	849	200	200	31553	-98239
2019	850	200	200	31553	-98239
2020	849	200	200	31624	-98239
2021	850	200	200	31624	-98163
2022	850	200	200	31624	-98163
2023	850	200	200	31698	-98163
2024	850	200	200	31698	-98086
2025	850	200	200	31698	-98086
2026	850	200	200	31769	-98086
2027	851	200	200	31769	-98005
2028	850	200	200	31769	-98005
2029	851	200	200	31842	-98005
2030	849	200	200	31842	-97927
2031	850	200	200	31842	-97927
2032	849	200	200	31915	-97927
2033	848	200	200	31915	-97850
2034	850	200	200	31915	-97850
2035	849	200	200	31989	-97850
2036	849	200	200	31989	-97774
2037	850	200	200	31989	-97774
2038	851	200	200	32061	-97774
2039	851	200	200	32061	-97697
2040	850	200	200	32061	-97697
2041	849	200	200	32132	-97697
2042	850	200	200	32132	-97618
2043	850	200	200	32132	-97618
2044	850	200	200	32206	-97618
2045	850	200	200	32206	-97543
2046	850	200	200	32206	-97543
2047	851	200	200	32282	-97543
2048	850	200	200	32282	-97465
2049	851	200	200	32282	-97465
2050	850	200	200	32356	-97465
2051	851	200	200	32356	-97389
2052	849	200	200	32356	-97389
2053	850	200	200	32428	-97389
2054	849	200	200	32428	-97312
2055	849	200	200	32428	-97312
2056	850	200	200	32501	-97312
2057	848	200	200	32501	-97236
2058	851	200	200	32501	-97236
2059	850	200	200	32574	-97236
2060	850	200	200	32574	-97236
2061	850	200	200	32574	-97158
2062	849	200	200	32648	-97158
2063	850	200	200	32648	-97158
2064	850	200	200	32648	-97081
2065	850	200	200	32719	-97081
2066	851	200	200	32719	-97081
2067	851	200	200	32719	-97003
2068	850	200	200	32794	-97003
2069	850	200	200	32794	-97003
2070	850	200	200	32794	-96923
2071	849	200	200	32867	-96923
2072	851	200	200	32867	-96923
2073	851	200	200	32867	-96849
2074	850	200	200	32939	-96849
2075	849	200	200	32939	-96849
2076	850	200	200	32939	-96770
2077	849	200	200	33009	-96770
2078	850	200	200	33009	-96770
2079	851	200	200	33009	-96692
2080	850	200	200	33084	-96692
2081	849	200	200	33084	-96692
2082	848	200	200	33084	-96614
2083	849	200	200	33154	-96614
2084	849	200	200	33154	-96614
2085	851	200	200	33154	-96533
2086	851	200	200	33226	-96533
2087	850	200	200	33226	-96533
2088	849	200	200	33226	-96457
2089	851	200	200	33300	-96457
2090	849	200	200	33300	-96457
2091	850	200	200	33300	-96378
2092	851	200	200	33371	-96378
2093	851	200	200	33371	-96378
2094	851	200	200	33371	-96300
2095	849	200	200	33441	-96300
2096	850	200	200	33441	-96300
2097	850	200	200	33441	-96221
2098	850	200	200	33512	-96221
2099	851	200	200	33512	-96221
2100	851	200	200	33512	-96145
2101	849	200	200	33585	-96145
2102	850	200	200	33585	-96145
2103	851	200	200	33585	-96069
2104	849	200	200	33655	-96069
2105	851	200	200	33655	-96069
2106	849	200	200	33655	-95991
2107	846	200	200	33729	-95991
2108	846	200	200	33729	-95991
2109	846	200	200	33729	-95912
2110	844	200	200	33800	-95912
2111	846	200	200	33800	-95912
2112	847	200	200	33800	-95833
2113	846	200	200	33873	-95833
2114	845	200	200	33873	-95833
2115	845	200	200	33873	-95760
2116	845	200	200	33946	-95760
2117	845	200	200	33946	-95760
2118	847	200	200	33946	-95681
2119	846	200	200	34021	-95681
2120	846	200	200	34021	-95681
2121	844	200	200	34021	-95607
2122	846	200	200	34093	-95607
2123	846	200	200	34093	-95607
2124	846	200	200	34093	-95528
2125	847	200	200	34164	-95528
2126	847	200	200	34164	-95528
2127	846	200	200	34164	-95452
2128	847	200	200	34237	-95452
2129	844	200	200	34237	-95452
2130	847	200	200	34237	-95377
2131	847	200	200	34237	-95377
2132	846	200	200	34313	-95377
2133	846	200	200	34313	-95300
2134	845	200	200	34313	-95300
2135	846	200	200	34387	-95300
2136	846	200	200	34387	-95226
2137	846	200	200	34387	-95226
2138	845	200	200	34460	-95226
2139	844	200	200	34460	-95145
2140	847	200	200	34460	-95145
2141	846	200	200	34533	-95145
2142	846	200	200	34533	-95070
2143	844	200	200	34533	-95070
2144	845	200	200	34606	-95070
2145	845	200	200	34606	-94993
2146	845	200	200	34606	-94993
2147	845	200	200	34679	-94993
2148	847	200	200	34679	-94914
2149	846	200	200	34679	-94914
2150	847	200	200	34752	-94914
2151	846	200	200	34752	-94838
2152	846	200	200	34752	-94838
2153	846	200	200	34826	-94838
2154	846	200	200	34826	-94759
2155	846	200	200	34826	-94759
2156	846	200	200	34899	-94759
2157	846	200	200	34899	-94684
2158	845	200	200	34899	-94684
2159	847	200	200	34972	-94684
2160	846	200	200	34972	-94604
2161	846	200	200	34972	-94604
2162	846	200	200	35042	-94604
2163	846	200	200	35042	-94526
2164	846	200	200	35042	-94526
2165	846	200	200	35118	-94526
2166	846	200	200	35118	-94447
2167	846	200	200	35118	-94447
2168	846	200	200	35187	-94447
2169	846	200	200	35187	-94369
2170	846	200	200	35187	-94369
2171	846	200	200	35259	-94369
2172	847	200	200	35259	-94292
2173	846	200	200	35259	-94292
2174	846	200	200	35331	-94292
2175	846	200	200	35331	-94292
2176	847	200	200	35331	-94212
2177	844	200	200	35403	-94212
2178	841	200	200	35403	-94212
2179	841	200	200	35403	-94134
2180	841	200	200	35473	-94134
2181	843	200	200	35473	-94134
2182	841	200	200	35473	-94058
2183	843	200	200	35546	-94058
2184	841	200	200	35546	-94058
2185	842	200	200	35546	-93981
2186	841	200	200	35617	-93981
2187	841	200	200	35617	-93981
2188	841	200	200	35617	-93901
2189	841	200	200	35689	-93901
2190	842	200	200	35689	-93901
2191	841	200	200	35689	-93823
2192	843	200	200	35763	-93823
2193	842	200	200	35763	-93823
2194	842	200	200	35763	-93746
2195	841	200	200	35833	-93746
2196	842	200	200	35833	-93746
2197	842	200	200	35833	-93669
2198	840	200	200	35906	-93669
2199	842	200	200	35906	-93669
2200	842	200	200	35906	-93592
2201	843	200	200	35978	-93592
2202	842	200	200	35978	-93592
2203	842	200	200	35978	-93514
2204	840	200	200	36054	-93514
2205	841	200	200	36054	-93514
2206	841	200	200	36054	-93439
2207	842	200	200	36127	-93439
2208	842	200	200	36127	-93439
2209	841	200	200	36127	-93361
2210	842	200	200	36198	-93361
2211	842	200	200	36198	-93361
2212	842	200	200	36198	-93285
2213	841	200	200	36271	-93285
2214	842	200	200	36271	-93285
2215	841	200	200	36271	-93208
2216	842	200	200	36346	-93208
2217	841	200	200	36346	-93208
2218	842	200	200	36346	-93131
2219	843	200	200	36420	-93131
2220	842	200	200	36420	-93131
2221	841	200	200	36420	-93055
2222	843	200	200	36493	-93055
2223	841	200	200	36493	-93055
2224	843	200	200	36493	-92978
2225	843	200	200	36565	-92978
2226	842	200	200	36565	-92978
2227	842	200	200	36565	-92901
2228	842	200	200	36640	-92901
2229	841	200	200	36640	-92901
2230	843	200	200	36640	-92821
2231	843	200	200	36712	-92821
2232	842	200	200	36712	-92821
2233	842	200	200	36712	-92747
2234	842	200	200	36785	-92747
2235	841	200	200	36785	-92747
2236	842	200	200	36785	-92669
2237	843	200	200	36857	-92669
2238	842	200	200	36857	-92669
2239	842	200	200	36857	-92591
2240	842	200	200	36930	-92591
2241	842	200	200	36930	-92591
2242	843	200	200	36930	-92513
2243	843	200	200	37003	-92513
2244	841	200	200	37003	-92513
2245	842	200	200	37003	-92434
2246	842	200	200	37072	-92434
2247	842	200	200	37072	-92434
2248	843	200	200	37072	-92358
2249	843	200	200	37148	-92358
2250	841	200	200	37148	-92358
2251	841	200	200	37148	-92279
2252	842	200	200	37218	-92279
2253	841	200	200	37218	-92279
2254	841	200	200	37218	-92201
2255	842	200	200	37218	-92201
2256	842	200	200	37290	-92201
2257	841	200	200	37290	-92122
2258	840	200	200	37290	-92122
2259	841	200	200	37361	-92122
2260	842	200	200	37361	-92047
2261	842	200	200	37361	-92047
2262	841	200	200	37435	-92047
2263	841	200	200	37435	-91971
2264	841	200	200	37435	-91971
2265	845	200	200	37502	-91971
2266	846	200	200	37502	-91892
2267	846	200	200	37502	-91892
2268	845	200	200	37575	-91892
2269	846	200	200	37575	-91813
2270	844	200	200	37575	-91813
2271	846	200	200	37645	-91813
2272	846	200	200	37645	-91734
2273	846	200	200	37645	-91734
2274	845	200	200	37718	-91734
2275	846	200	200	37718	-91660
2276	846	200	200	37718	-91660
2277	846	200	200	37791	-91660
2278	847	200	200	37791	-91581
2279	846	200	200	37791	-91581
2280	844	200	200	37863	-91581
2281	846	200	200	37863	-91506
2282	847	200	200	37863	-91506
2283	847	200	200	37935	-91506
2284	846	200	200	37935	-91428
2285	845	200	200	37935	-91428
2286	844	200	200	38007	-91428
2287	846	200	200	38007	-91352
2288	846	200	200	38007	-91352
2289	847	200	200	38081	-91352
2290	846	200	200	38081	-91276
2291	845	200	200	38081	-91276
2292	845	200	200	38155	-91276
2293	846	200	200	38155	-91276
2294	846	200	200	38155	-91199
2295	846	200	200	38226	-91199
2296	845	200	200	38226	-91199
2297	847	200	200	38226	-91125
2298	845	200	200	38299	-91125
2299	846	200	200	38299	-91125
2300	845	200	200	38299	-91044
2301	845	200	200	38374	-91044
2302	847	200	200	38374	-91044
2303	845	200	200	38374	-90970
2304	847	200	200	38448	-90970
2305	846	200	200	38448	-90970
2306	846	200	200	38448	-90893
2307	846	200	200	38522	-90893
2308	847	200	200	38522	-90893
2309	845	200	200	38522	-90814
2310	847	200	200	38592	-90814
2311	846	200	200	38592	-90814
2312	846	200	200	38592	-90738
2313	846	200	200	38667	-90738
2314	846	200	200	38667	-90738
2315	846	200	200	38667	-90660
2316	846	200	200	38738	-90660
2317	846	200	200	38738	-90660
2318	845	200	200	38738	-90585
2319	847	200	200	38813	-90585
2320	846	200	200	38813	-90585
2321	847	200	200	38813	-90505
2322	844	200	200	38884	-90505
2323	846	200	200	38884	-90505
2324	846	200	200	38884	-90427
2325	844	200	200	38957	-90427
2326	846	200	200	38957	-90427
2327	845	200	200	38957	-90349
2328	846	200	200	39030	-90349
2329	846	200	200	39030	-90349
2330	846	200	200	39030	-90271
2331	846	200	200	39101	-90271
2332	846	200	200	39101	-90271
2333	846	200	200	39101	-90194
2334	846	200	200	39172	-90194
2335	846	200	200	39172	-90194
2336	846	200	200	39172	-90114
2337	846	200	200	39244	-90114
2338	846	200	200	39244	-90114
2339	846	200	200	39244	-90037
2340	846	200	200	39315	-90037
2341	846	200	200	39315	-90037
2342	846	200	200	39315	-89961
2343	846	200	200	39387	-89961
2344	845	200	200	39387	-89961
2345	846	200	200	39387	-89884
2346	846	200	200	39461	-89884
2347	848	200	200	39461	-89884
2348	850	200	200	39461	-89804
2349	850	200	200	39529	-89804
2350	850	200	200	39529	-89804
2351	850	200	200	39529	-89726
2352	850	200	200	39602	-89726
2353	849	200	200	39602	-89726
2354	850	200	200	39602	-89650
2355	850	200	200	39671	-89650
2356	849	200	200	39671	-89650
2357	849	200	200	39671	-89572
2358	849	200	200	39744	-89572
2359	848	200	200	39744	-89572
2360	850	200	200	39744	-89496
2361	849	200	200	39815	-89496
2362	851	200	200	39815	-89496
2363	850	200	200	39815	-89418
2364	850	200	200	39889	-89418
2365	847	200	200	39889	-89418
2366	850	200	200	39889	-89343
2367	849	200	200	39960	-89343
2368	849	200	200	39960	-89343
2369	851	200	200	39960	-89265
2370	848	200	200	40033	-89265
2371	849	200	200	40033	-89265
2372	849	200	200	40033	-89189
2373	850	200	200	40033	-89189
2374	851	200	200	40106	-89189
2375	850	200	200	40106	-89113
2376	850	200	200	40106	-89113
2377	850	200	200	40180	-89113
2378	849	200	200	40180	-89035
2379	851	200	200	40180	-89035
2380	851	200	200	40252	-89035
2381	849	200	200	40252	-88959
2382	850	200	200	40252	-88959
2383	849	200	200	40324	-88959
2384	850	200	200	40324	-88882
2385	851	200	200	40324	-88882
2386	850	200	200	40398	-88882
2387	850	200	200	40398	-88805
2388	848	200	200	40398	-88805
2389	848	200	200	40474	-88805
2390	850	200	200	40474	-88725
2391	850	200	200	40474	-88725
2392	850	200	200	40548	-88725
2393	850	200	200	40548	-88651
2394	849	200	200	40548	-88651
2395	850	200	200	40619	-88651
2396	851	200	200	40619	-88573
2397	850	200	200	40619	-88573
2398	849	200	200	40692	-88573
2399	850	200	200	40692	-88495
2400	850	200	200	40692	-88495
2401	850	200	200	40764	-88495
2402	850	200	200	40764	-88418
2403	847	200	200	40764	-88418
2404	849	200	200	40837	-88418
2405	850	200	200	40837	-88338
2406	850	200	200	40837	-88338
2407	851	200	200	40909	-88338
2408	850	200	200	40909	-88263
2409	850	200	200	40909	-88263
2410	850	200	200	40983	-88263
2411	849	200	200	40983	-88184
2412	851	200	200	40983	-88184
2413	851	200	200	41055	-88184
2414	849	200	200	41055	-88184
2415	850	200	200	41055	-88107
2416	849	200	200	41127	-88107
2417	851	200	200	41127	-88107
2418	850	200	200	41127	-88028
2419	850	200	200	41197	-88028
2420	850	200	200	41197	-88028
2421	849	200	200	41197	-87953
2422	850	200	200	41272	-87953
2423	851	200	200	41272	-87953
2424	850	200	200	41272	-87877
2425	849	200	200	41341	-87877
2426	851	200	200	41341	-87877
2427	850	200	200	41341	-87800
2428	851	200	200	41414	-87800
2429	850	200	200	41414	-87800
2430	848	200	200	41414	-87721
2431	848	200	200	41488	-87721
2432	850	200	200	41488	-87721
2433	851	200	200	41488	-87643
2434	851	200	200	41559	-87643
2435	850	200	200	41559	-87643
2436	848	200	200	41559	-87570
2437	849	200	200	41630	-87570
2438	848	200	200	41630	-87570
2439	851	200	200	41630	-87492
2440	851	200	200	41701	-87492
2441	850	200	200	41701	-87492
2442	850	200	200	41701	-87418
2443	851	200	200	41774	-87418
2444	850	200	200	41774	-87418
2445	850	200	200	41774	-87340
2446	850	200	200	41845	-87340
2447	851	200	200	41845	-87340
2448	850	200	200	41845	-87264
2449	851	200	200	41919	-87264
2450	849	200	200	41919	-87264
2451	851	200	200	41919	-87189
2452	850	200	200	41991	-87189
2453	849	200	200	41991	-87189
2454	849	200	200	41991	-87113
2455	850	200	200	42065	-87113
2456	850	200	200	42065	-87113
2457	849	200	200	42065	-87040
2458	850	200	200	42138	-87040
2459	849	200	200	42138	-87040
2460	850	200	200	42138	-86960
2461	850	200	200	42214	-86960
2462	849	200	200	42214	-86960
2463	850	200	200	42214	-86886
2464	850	200	200	42287	-86886
2465	849	200	200	42287	-86886
2466	851	200	200	42287	-86809
2467	849	200	200	42358	-86809
2468	854	200	200	42358	-86809
2469	854	200	200	42358	-86731
2470	854	200	200	42432	-86731
2471	854	200	200	42432	-86731
2472	854	200	200	42432	-86655
2473	853	200	200	42509	-86655
2474	854	200	200	42509	-86655
2475	853	200	200	42509	-86578
2476	854	200	200	42583	-86578
2477	854	200	200	42583	-86578
2478	854	200	200	42583	-86503
2479	854	200	200	42657	-86503
2480	854	200	200	42657	-86503
2481	854	200	200	42657	-86423
2482	853	200	200	42730	-86423
2483	854	200	200	42730	-86423
2484	854	200	200	42730	-86346
2485	854	200	200	42803	-86346
2486	853	200	200	42803	-86346
2487	853	200	200	42803	-86267
2488	853	200	200	42877	-86267
2489	853	200	200	42877	-86267
2490	854	200	200	42877	-86191
2491	853	200	200	42877	-86191
2492	855	200	200	42949	-86191
2493	854	200	200	42949	-86114
2494	854	200	200	42949	-86114
2495	853	200	200	43024	-86114
2496	854	200	200	43024	-86035
2497	853	200	200	43024	-86035
2498	853	200	200	43097	-86035
2499	853	200	200	43097	-85958
2500	853	200	200	43097	-85958
2501	854	200	200	43170	-85958
2502	853	200	200	43170	-85883
2503	854	200	200	43170	-85883
2504	854	200	200	43240	-85883
2505	854	200	200	43240	-85806
2506	854	200	200	43240	-85806
2507	854	200	200	43316	-85806
2508	853	200	200	43316	-85727
2509	854	200	200	43316	-85727
2510	853	200	200	43385	-85727
2511	853	200	200	43385	-85650
2512	853	200	200	43385	-85650
2513	853	200	200	43458	-85650
2514	854	200	200	43458	-85574
2515	853	200	200	43458	-85574
2516	855	200	200	43532	-85574
2517	853	200	200	43532	-85501
2518	854	200	200	43532	-85501
2519	852	200	200	43603	-85501
2520	854	200	200	43603	-85423
2521	853	200	200	43603	-85423
2522	854	200	200	43674	-85423
2523	854	200	200	43674	-85346
2524	854	200	200	43674	-85346
2525	854	200	200	43746	-85346
2526	853	200	200	43746	-85271
2527	852	200	200	43746	-85271
2528	852	200	200	43819	-85271
2529	854	200	200	43819	-85271
2530	854	200	200	43819	-85195
2531	853	200	200	43890	-85195
2532	854	200	200	43890	-85195
2533	854	200	200	43890	-85121
2534	854	200	200	43964	-85121
2535	854	200	200	43964	-85121
2536	852	200	200	43964	-85045
2537	854	200	200	44035	-85045
2538	852	200	200	44035	-85045
2539	855	200	200	44035	-84971
2540	854	200	200	44109	-84971
2541	853	200	200	44109	-84971
2542	853	200	200	44109	-84892
2543	854	200	200	44182	-84892
2544	854	200	200	44182	-84892
2545	854	200	200	44182	-84819
2546	854	200	200	44257	-84819
2547	854	200	200	44257	-84819
2548	852	200	200	44257	-84743
2549	853	200	200	44331	-84743
2550	854	200	200	44331	-84743
2551	854	200	200	44331	-84664
2552	853	200	200	44402	-84664
2553	854	200	200	44402	-84664
2554	854	200	200	44402	-84590
2555	854	200	200	44475	-84590
2556	854	200	200	44475	-84590
2557	854	200	200	44475	-84512
2558	854	200	200	44552	-84512
2559	853	200	200	44552	-84512
2560	854	200	200	44552	-84438
2561	854	200	200	44626	-84438
2562	852	200	200	44626	-84438
2563	855	200	200	44626	-84359
2564	851	200	200	44700	-84359
2565	854	200	200	44700	-84359
2566	854	200	200	44700	-84282
2567	854	200	200	44772	-84282
2568	854	200	200	44772	-84282
2569	853	200	200	44772	-84204
2570	852	200	200	44846	-84204
2571	853	200	200	44846	-84204
2572	854	200	200	44846	-84128
2573	854	200	200	44919	-84128
2574	854	200	200	44919	-84128
2575	854	200	200	44919	-84052
2576	854	200	200	44992	-84052
2577	854	200	200	44992	-84052
2578	854	200	200	44992	-83974
2579	854	200	200	45066	-83974
2580	854	200	200	45066	-83974
2581	852	200	200	45066	-83897
2582	854	200	200	45138	-83897
2583	854	200	200	45138	-83897
2584	854	200	200	45138	-83823
2585	854	200	200	45212	-83823
2586	855	200	200	45212	-83823
2587	854	200	200	45212	-83747
2588	854	200	200	45281	-83747
2589	854	200	200	45281	-83747
2590	852	200	200	45281	-83668
2591	854	200	200	45358	-83668
2592	852	200	200	45358	-83668
2593	854	200	200	45358	-83592
2594	854	200	200	45427	-83592
2595	854	200	200	45427	-83592
2596	854	200	200	45427	-83516
2597	853	200	200	45500	-83516
2598	854	200	200	45500	-83516
2599	854	200	200	45500	-83442
2600	853	200	200	45572	-83442
2601	854	200	200	45572	-83442
2602	853	200	200	45572	-83366
2603	855	200	200	45644	-83366
2604	854	200	200	45644	-83366
2605	854	200	200	45644	-83290
2606	854	200	200	45715	-83290
2607	854	200	200	45715	-83290
2608	853	200	200	45715	-83215
2609	854	200	200	45715	-83215
2610	853	200	200	45788	-83215
2611	853	200	200	45788	-83139
2612	852	200	200	45788	-83139
2613	853	200	200	45860	-83139
2614	854	200	200	45860	-83065
2615	853	200	200	45860	-83065
2616	854	200	200	45932	-83065
2617	853	200	200	45932	-82989
2618	854	200	200	45932	-82989
2619	853	200	200	46006	-82989
2620	854	200	200	46006	-82915
2621	853	200	200	46006	-82915
2622	853	200	200	46077	-82915
2623	853	200	200	46077	-82836
2624	854	200	200	46077	-82836
2625	853	200	200	46150	-82836
2626	852	200	200	46150	-82762
2627	854	200	200	46150	-82762
2628	853	200	200	46223	-82762
2629	854	200	200	46223	-82686
2630	853	200	200	46223	-82686
2631	855	200	200	46299	-82686
2632	852	200	200	46299	-82607
2633	853	200	200	46299	-82607
2634	853	200	200	46372	-82607
2635	854	200	200	46372	-82534
2636	854	200	200	46372	-82534
2637	853	200	200	46444	-82534
2638	854	200	200	46444	-82455
2639	854	200	200	46444	-82455
2640	854	200	200	46517	-82455
2641	854	200	200	46517	-82381
2642	854	200	200	46517	-82381
2643	854	200	200	46593	-82381
2644	854	200	200	46593	-82381
2645	853	200	200	46593	-82302
2646	853	200	200	46667	-82302
2647	852	200	200	46667	-82302
2648	854	200	200	46667	-82224
2649	853	200	200	46741	-82224
2650	854	200	200	46741	-82224
2651	853	200	200	46741	-82148
2652	854	200	200	46813	-82148
2653	853	200	200	46813	-82148
2654	853	200	200	46813	-82071
2655	853	200	200	46888	-82071
2656	853	200	200	46888	-82071
2657	851	200	200	46888	-81995
2658	849	200	200	46961	-81995
2659	850	200	200	46961	-81995
2660	850	200	200	46961	-81916
2661	850	200	200	47034	-81916
2662	851	200	200	47034	-81916
2663	849	200	200	47034	-81840
2664	851	200	200	47106	-81840
2665	849	200	200	47106	-81840
2666	849	200	200	47106	-81766
2667	850	200	200	47180	-81766
2668	850	200	200	47180	-81766
2669	850	200	200	47180	-81690
2670	849	200	200	47254	-81690
2671	849	200	200	47254	-81690
2672	849	200	200	47254	-81611
2673	851	200	200	47323	-81611
2674	849	200	200	47323	-81611
2675	851	200	200	47323	-81535
2676	850	200	200	47399	-81535
2677	850	200	200	47399	-81535
2678	850	200	200	47399	-81460
2679	848	200	200	47468	-81460
2680	851	200	200	47468	-81460
2681	851	200	200	47468	-81385
2682	850	200	200	47540	-81385
2683	849	200	200	47540	-81385
2684	850	200	200	47540	-81311
2685	850	200	200	47612	-81311
2686	850	200	200	47612	-81311
2687	851	200	200	47612	-81235
2688	851	200	200	47684	-81235
2689	849	200	200	47684	-81235
2690	849	200	200	47684	-81161
2691	850	200	200	47753	-81161
2692	850	200	200	47753	-81161
2693	851	200	200	47753	-81085
2694	851	200	200	47825	-81085
2695	850	200	200	47825	-81085
2696	849	200	200	47825	-81012
2697	851	200	200	47896	-81012
2698	848	200	200	47896	-81012
2699	848	200	200	47896	-80937
2700	850	200	200	47968	-80937
2701	851	200	200	47968	-80937
2702	851	200	200	47968	-80864
2703	850	200	200	48041	-80864
2704	850	200	200	48041	-80864
2705	850	200	200	48041	-80787
2706	849	200	200	48111	-80787
2707	850	200	200	48111	-80787
2708	851	200	200	48111	-80713
2709	851	200	200	48183	-80713
2710	849	200	200	48183	-80713
2711	850	200	200	48183	-80638
2712	850	200	200	48254	-80638
2713	850	200	200	48254	-80638
2714	851	200	200	48254	-80561
2715	851	200	200	48328	-80561
2716	850	200	200	48328	-80561
2717	849	200	200	48328	-80489
2718	850	200	200	48401	-80489
2719	849	200	200	48401	-80489
2720	850	200	200	48401	-80411
2721	851	200	200	48471	-80411
2722	850	200	200	48471	-80411
2723	850	200	200	48471	-80338
2724	849	200	200	48544	-80338
2725	850	200	200	48544	-80338
2726	849	200	200	48544	-80260
2727	850	200	200	48544	-80260
2728	851	200	200	48618	-80260
2729	851	200	200	48618	-80184
2730	850	200	200	48618	-80184
2731	850	200	200	48691	-80184
2732	851	200	200	48691	-80108
2733	849	200	200	48691	-80108
2734	850	200	200	48764	-80108
2735	851	200	200	48764	-80032
2736	850	200	200	48764	-80032
2737	848	200	200	48834	-80032
2738	849	200	200	48834	-79957
2739	850	200	200	48834	-79957
2740	850	200	200	48908	-79957
2741	850	200	200	48908	-79880
2742	850	200	200	48908	-79880
2743	850	200	200	48978	-79880
2744	850	200	200	48978	-79805
2745	848	200	200	48978	-79805
2746	851	200	200	49052	-79805
2747	849	200	200	49052	-79732
2748	850	200	200	49052	-79732
2749	851	200	200	49122	-79732
2750	850	200	200	49122	-79657
2751	849	200	200	49122	-79657
2752	849	200	200	49195	-79657
2753	851	200	200	49195	-79580
2754	850	200	200	49195	-79580
2755	851	200	200	49266	-79580
2756	851	200	200	49266	-79505
2757	850	200	200	49266	-79505
2758	850	200	200	49336	-79505
2759	850	200	200	49336	-79431
2760	850	200	200	49336	-79431
2761	850	200	200	49405	-79431
2762	849	200	200	49405	-79431
2763	850	200	200	49405	-79359
2764	850	200	200	49477	-79359
2765	850	200	200	49477	-79359
2766	850	200	200	49477	-79283
2767	851	200	200	49547	-79283
2768	851	200	200	49547	-79283
2769	850	200	200	49547	-79210
2770	851	200	200	49617	-79210
2771	850	200	200	49617	-79210
2772	850	200	200	49617	-79136
2773	850	200	200	49690	-79136
2774	850	200	200	49690	-79136
2775	850	200	200	49690	-79063
2776	850	200	200	49759	-79063
2777	849	200	200	49759	-79063
2778	851	200	200	49759	-78991
2779	850	200	200	49829	-78991
2780	850	200	200	49829	-78991
2781	850	200	200	49829	-78918
2782	850	200	200	49898	-78918
2783	851	200	200	49898	-78918
2784	850	200	200	49898	-78847
2785	850	200	200	49970	-78847
2786	850	200	200	49970	-78847
2787	849	200	200	49970	-78770
2788	850	200	200	50038	-78770
2789	849	200	200	50038	-78770
2790	851	200	200	50038	-78699
2791	849	200	200	50111	-78699
2792	850	200	200	50111	-78699
2793	850	200	200	50111	-78625
2794	849	200	200	50180	-78625
2795	850	200	200	50180	-78625
2796	850	200	200	50180	-78551
2797	851	200	200	50252	-78551
2798	850	200	200	50252	-78551
2799	851	200	200	50252	-78477
2800	850	200	200	50322	-78477
2801	849	200	200	50322	-78477
2802	851	200	200	50322	-78406
2803	850	200	200	50395	-78406
2804	850	200	200	50395	-78406
2805	849	200	200	50395	-78331
2806	850	200	200	50467	-78331
2807	850	200	200	50467	-78331
2808	850	200	200	50467	-78258
2809	850	200	200	50536	-78258
2810	850	200	200	50536	-78258
2811	850	200	200	50536	-78184
2812	853	200	200	50607	-78184
2813	852	200	200	50607	-78184
2814	854	200	200	50607	-78108
2815	854	200	200	50680	-78108
2816	854	200	200	50680	-78108
2817	853	200	200	50680	-78036
2818	853	200	200	50751	-78036
2819	854	200	200	50751	-78036
2820	854	200	200	50751	-77962
2821	854	200	200	50823	-77962
2822	854	200	200	50823	-77962
2823	854	200	200	50823	-77890
2824	854	200	200	50893	-77890
2825	854	200	200	50893	-77890
2826	854	200	200	50893	-77815
2827	853	200	200	50967	-77815
2828	854	200	200	50967	-77815
2829	854	200	200	50967	-77742
2830	853	200	200	51036	-77742
2831	854	200	200	51036	-77742
2832	854	200	200	51036	-77672
2833	853	200	200	51109	-77672
2834	855	200	200	51109	-77672
2835	854	200	200	51109	-77600
2836	853	200	200	51180	-77600
2837	854	200	200	51180	-77600
2838	854	200	200	51180	-77526
2839	854	200	200	51251	-77526
2840	854	200	200	51251	-77526
2841	854	200	200	51251	-77453
2842	854	200	200	51322	-77453
2843	854	200	200	51322	-77453
2844	852	200	200	51322	-77381
2845	854	200	200	51322	-77381
2846	852	200	200	51391	-77381
2847	852	200	200	51391	-77312
2848	854	200	200	51391	-77312
2849	854	200	200	51462	-77312
2850	854	200	200	51462	-77238
2851	853	200	200	51462	-77238
2852	854	200	200	51532	-77238
2853	854	200	200	51532	-77167
2854	853	200	200	51532	-77167
2855	854	200	200	51603	-77167
2856	854	200	200	51603	-77095
2857	854	200	200	51603	-77095
2858	854	200	200	51673	-77095
2859	854	200	200	51673	-77023
2860	854	200	200	51673	-77023
2861	854	200	200	51745	-77023
2862	854	200	200	51745	-76952
2863	854	200	200	51745	-76952
2864	852	200	200	51812	-76952
2865	852	200	200	51812	-76881
2866	853	200	200	51812	-76881
2867	853	200	200	51883	-76881
2868	853	200	200	51883	-76812
2869	854	200	200	51883	-76812
2870	854	200	200	51950	-76812
2871	854	200	200	51950	-76737
2872	852	200	200	51950	-76737
2873	854	200	200	52022	-76737
2874	854	200	200	52022	-76667
2875	853	200	200	52022	-76667
2876	854	200	200	52090	-76667
2877	854	200	200	52090	-76595
2878	858	200	200	52090	-76595
2879	857	200	200	52162	-76595
2880	857	200	200	52162	-76523
2881	857	200	200	52162	-76523
2882	858	200	200	52231	-76523
2883	857	200	200	52231	-76449
2884	858	200	200	52231	-76449
2885	859	200	200	52302	-76449
2886	857	200	200	52302	-76449
2887	856	200	200	52302	-76381
2888	858	200	200	52373	-76381
2889	858	200	200	52373	-76381
2890	858	200	200	52373	-76307
2891	859	200	200	52445	-76307
2892	858	200	200	52445	-76307
2893	857	200	200	52445	-76237
2894	857	200	200	52516	-76237
2895	857	200	200	52516	-76237
2896	858	200	200	52516	-76163
2897	858	200	200	52585	-76163
2898	858	200	200	52585	-76163
2899	858	200	200	52585	-76092
2900	858	200	200	52656	-76092
2901	858	200	200	52656	-76092
2902	859	200	200	52656	-76019
2903	857	200	200	52730	-76019
2904	858	200	200	52730	-76019
2905	859	200	200	52730	-75948
2906	858	200	200	52802	-75948
2907	858	200	200	52802	-75948
2908	859	200	200	52802	-75877
2909	858	200	200	52874	-75877
2910	858	200	200	52874	-75877
2911	858	200	200	52874	-75805
2912	857	200	200	52944	-75805
2913	859	200	200	52944	-75805
2914	857	200	200	52944	-75733
2915	858	200	200	53018	-75733
2916	858	200	200	53018	-75733
2917	857	200	200	53018	-75664
2918	858	200	200	53087	-75664
2919	858	200	200	53087	-75664
2920	858	200	200	53087	-75595
2921	857	200	200	53160	-75595
2922	858	200	200	53160	-75595
2923	858	200	200	53160	-75524
2924	857	200	200	53230	-75524
2925	858	200	200	53230	-75524
2926	857	200	200	53230	-75452
2927	858	200	200	53302	-75452
2928	856	200	200	53302	-75452
2929	856	200	200	53302	-75381
2930	858	200	200	53372	-75381
2931	856	200	200	53372	-75381
2932	859	200	200	53372	-75313
2933	858	200	200	53441	-75313
2934	858	200	200	53441	-75313
2935	857	200	200	53441	-75244
2936	858	200	200	53512	-75244
2937	857	200	200	53512	-75244
2938	858	200	200	53512	-75175
2939	858	200	200	53581	-75175
2940	859	200	200	53581	-75175
2941	858	200	200	53581	-75106
2942	857	200	200	53651	-75106
2943	858	200	200	53651	-75106
2944	858	200	200	53651	-75038
2945	858	200	200	53720	-75038
2946	858	200	200	53720	-75038
2947	858	200	200	53720	-74970
2948	858	200	200	53792	-74970
2949	858	200	200	53792	-74970
2950	858	200	200	53792	-74902
2951	857	200	200	53858	-74902
2952	857	200	200	53858	-74902
2953	858	200	200	53858	-74834
2954	857	200	200	53928	-74834
2955	858	200	200	53928	-74834
2956	856	200	200	53928	-74768
2957	858	200	200	53995	-74768
2958	857	200	200	53995	-74768
2959	857	200	200	53995	-74697
2960	858	200	200	53995	-74697
2961	857	200	200	54065	-74697
2962	858	200	200	54065	-74630
2963	858	200	200	54065	-74630
2964	858	200	200	54132	-74630
2965	858	200	200	54132	-74562
2966	857	200	200	54132	-74562
2967	858	200	200	54203	-74562
2968	859	200	200	54203	-74494
2969	858	200	200	54203	-74494
2970	858	200	200	54271	-74494
2971	858	200	200	54271	-74424
2972	858	200	200	54271	-74424
2973	858	200	200	54341	-74424
2974	858	200	200	54341	-74357
2975	858	200	200	54341	-74357
2976	858	200	200	54411	-74357
2977	858	200	200	54411	-74289
2978	858	200	200	54411	-74289
2979	858	200	200	54482	-74289
2980	858	200	200	54482	-74222
2981	858	200	200	54482	-74222
2982	857	200	200	54553	-74222
2983	857	200	200	54553	-74152
2984	856	200	200	54553	-74152
2985	859	200	200	54621	-74152
2986	859	200	200	54621	-74085
2987	857	200	200	54621	-74085
2988	858	200	200	54691	-74085
2989	858	200	200	54691	-74015
2990	858	200	200	54691	-74015
2991	856	200	200	54763	-74015
2992	859	200	200	54763	-73949
2993	857	200	200	54763	-73949
2994	858	200	200	54833	-73949
2995	858	200	200	54833	-73880
2996	858	200	200	54833	-73880
2997	857	200	200	54904	-73880
2998	858	200	200	54904	-73813
2999	858	200	200	54904	-73813
3000	858	200	200	54971	-73813
3001	859	200	200	54971	-73744
3002	858	200	200	54971	-73744
3003	857	200	200	55042	-73744
3004	858	200	200	55042	-73744
3005	859	200	200	55042	-73677
3006	858	200	200	55109	-73677
3007	858	200	200	55109	-73677
3008	858	200	200	55109	-73612
3009	858	200	200	55180	-73612
3010	857	200	200	55180	-73612
3011	859	200	200	55180	-73546
3012	857	200	200	55246	-73546
3013	859	200	200	55246	-73546
3014	859	200	200	55246	-73480
3015	858	200	200	55316	-73480
3016	858	200	200	55316	-73480
3017	858	200	200	55316	-73413
3018	856	200	200	55384	-73413
3019	859	200	200	55384	-73413
3020	859	200	200	55384	-73348
3021	858	200	200	55453	-73348
3022	857	200	200	55453	-73348
3023	857	200	200	55453	-73283
3024	857	200	200	55517	-73283
3025	858	200	200	55517	-73283
3026	856	200	200	55517	-73221
3027	854	200	200	55588	-73221
3028	852	200	200	55588	-73221
3029	851	200	200	55588	-73155
3030	854	200	200	55653	-73155
3031	854	200	200	55653	-73155
3032	854	200	200	55653	-73093
3033	854	200	200	55720	-73093
3034	854	200	200	55720	-73093
3035	853	200	200	55720	-73027
3036	854	200	200	55786	-73027
3037	852	200	200	55786	-73027
3038	852	200	200	55786	-72965
3039	854	200	200	55854	-72965
3040	854	200	200	55854	-72965
3041	854	200	200	55854	-72900
3042	852	200	200	55916	-72900
3043	854	200	200	55916	-72900
3044	854	200	200	55916	-72838
3045	854	200	200	55983	-72838
3046	854	200	200	55983	-72838
3047	854	200	200	55983	-72775
3048	853	200	200	56046	-72775
3049	854	200	200	56046	-72775
3050	854	200	200	56046	-72714
3051	853	200	200	56113	-72714
3052	854	200	200	56113	-72714
3053	854	200	200	56113	-72647
3054	854	200	200	56177	-72647
3055	853	200	200	56177	-72647
3056	853	200	200	56177	-72585
3057	852	200	200	56244	-72585
3058	854	200	200	56244	-72585
3059	854	200	200	56244	-72521
3060	854	200	200	56308	-72521
3061	854	200	200	56308	-72521
3062	853	200	200	56308	-72458
3063	854	200	200	56374	-72458
3064	853	200	200	56374	-72458
3065	854	200	200	56374	-72393
3066	853	200	200	56439	-72393
3067	854	200	200	56439	-72393
3068	853	200	200	56439	-72330
3069	853	200	200	56505	-72330
3070	854	200	200	56505	-72330
3071	854	200	200	56505	-72267
3072	854	200	200	56572	-72267
3073	854	200	200	56572	-72267
3074	853	200	200	56572	-72202
3075	853	200	200	56572	-72202
3076	854	200	200	56637	-72202
3077	854	200	200	56637	-72140
3078	853	200	200	56637	-72140
3079	854	200	200	56700	-72140
3080	853	200	200	56700	-72075
3081	854	200	200	56700	-72075
3082	853	200	200	56766	-72075
3083	853	200	200	56766	-72011
3084	854	200	200	56766	-72011
3085	852	200	200	56833	-72011
3086	854	200	200	56833	-71946
3087	854	200	200	56833	-71946
3088	854	200	200	56899	-71946
3089	853	200	200	56899	-71884
3090	853	200	200	56899	-71884
3091	853	200	200	56965	-71884
3092	854	200	200	56965	-71819
3093	854	200	200	56965	-71819
3094	854	200	200	57028	-71819
3095	854	200	200	57028	-71757
3096	854	200	200	57028	-71757
3097	853	200	200	57095	-71757
3098	853	200	200	57095	-71693
3099	854	200	200	57095	-71693
3100	853	200	200	57157	-71693
3101	854	200	200	57157	-71630
3102	852	200	200	57157	-71630
3103	854	200	200	57224	-71630
3104	853	200	200	57224	-71569
3105	853	200	200	57224	-71569
3106	854	200	200	57286	-71569
3107	854	200	200	57286	-71507
3108	853	200	200	57286	-71507
3109	853	200	200	57352	-71507
3110	853	200	200	57352	-71446
3111	854	200	200	57352	-71446
3112	853	200	200	57415	-71446
3113	854	200	200	57415	-71383
3114	854	200	200	57415	-71383
3115	854	200	200	57479	-71383
3116	853	200	200	57479	-71322
3117	853	200	200	57479	-71322
3118	853	200	200	57540	-71322
3119	852	200	200	57540	-71322
3120	855	200	200	57540	-71261
3121	854	200	200	57602	-71261
3122	854	200	200	57602	-71261
3123	853	200	200	57602	-71204
3124	853	200	200	57665	-71204
3125	854	200	200	57665	-71204
3126	854	200	200	57665	-71145
3127	854	200	200	57724	-71145
3128	854	200	200	57724	-71145
3129	854	200	200	57724	-71087
3130	852	200	200	57785	-71087
3131	854	200	200	57785	-71087
3132	853	200	200	57785	-71031
3133	853	200	200	57845	-71031
3134	854	200	200	57845	-71031
3135	853	200	200	57845	-70971
3136	854	200	200	57906	-70971
3137	854	200	200	57906	-70971
3138	853	200	200	57906	-70916
3139	854	200	200	57962	-70916
3140	854	200	200	57962	-70916
3141	853	200	200	57962	-70857
3142	854	200	200	58022	-70857
3143	853	200	200	58022	-70857
3144	854	200	200	58022	-70802
3145	854	200	200	58079	-70802
3146	854	200	200	58079	-70802
3147	855	200	200	58079	-70746
3148	854	200	200	58137	-70746
3149	853	200	200	58137	-70746
3150	854	200	200	58137	-70691
3151	854	200	200	58196	-70691
3152	854	200	200	58196	-70691
3153	854	200	200	58196	-70637
3154	852	200	200	58255	-70637
3155	854	200	200	58255	-70637
3156	854	200	200	58255	-70578
3157	854	200	200	58315	-70578
3158	853	200	200	58315	-70578
3159	852	200	200	58315	-70525
3160	853	200	200	58373	-70525
3161	854	200	200	58373	-70525
3162	854	200	200	58373	-70470
3163	853	200	200	58433	-70470
3164	854	200	200	58433	-70470
3165	853	200	200	58433	-70415
3166	854	200	200	58492	-70415
3167	858	200	200	58492	-70415
3168	857	200	200	58492	-70360
3169	856	200	200	58552	-70360
3170	859	200	200	58552	-70360
3171	858	200	200	58552	-70303
3172	858	200	200	58612	-70303
3173	858	200	200	58612	-70303
3174	856	200	200	58612	-70251
3175	858	200	200	58671	-70251
3176	858	200	200	58671	-70251
3177	858	200	200	58671	-70195
3178	858	200	200	58729	-70195
3179	858	200	200	58729	-70195
3180	858	200	200	58729	-70140
3181	858	200	200	58788	-70140
3182	857	200	200	58788	-70140
3183	859	200	200	58788	-70085
3184	859	200	200	58849	-70085
3185	857	200	200	58849	-70085
3186	858	200	200	58849	-70029
3187	857	200	200	58910	-70029
3188	858	200	200	58910	-70029
3189	859	200	200	58910	-69974
3190	859	200	200	58970	-69974
3191	857	200	200	58970	-69974
3192	858	200	200	58970	-69916
3193	858	200	200	59030	-69916
3194	858	200	200	59030	-69916
3195	858	200	200	59030	-69860
3196	858	200	200	59088	-69860
3197	858	200	200	59088	-69860
3198	857	200	200	59088	-69802
3199	856	200	200	59088	-69802
3200	858	200	200	59149	-69802
3201	859	200	200	59149	-69745
3202	857	200	200	59149	-69745
3203	857	200	200	59206	-69745
3204	858	200	200	59206	-69689
3205	858	200	200	59206	-69689
3206	858	200	200	59267	-69689
3207	859	200	200	59267	-69631
3208	855	200	200	59267	-69631
3209	858	200	200	59325	-69631
3210	858	200	200	59325	-69574
3211	858	200	200	59325	-69574
3212	859	200	200	59385	-69574
3213	858	200	200	59385	-69519
3214	858	200	200	59385	-69519
3215	859	200	200	59445	-69519
3216	858	200	200	59445	-69463
3217	858	200	200	59445	-69463
3218	858	200	200	59504	-69463
3219	858	200	200	59504	-69406
3220	858	200	200	59504	-69406
3221	859	200	200	59561	-69406
3222	858	200	200	59561	-69348
3223	858	200	200	59561	-69348
3224	858	200	200	59616	-69348
3225	858	200	200	59616	-69292
3226	858	200	200	59616	-69292
3227	858	200	200	59677	-69292
3228	857	200	200	59677	-69236
3229	857	200	200	59677	-69236
3230	858	200	200	59732	-69236
3231	857	200	200	59732	-69181
3232	858	200	200	59732	-69181
3233	859	200	200	59789	-69181
3234	858	200	200	59789	-69128
3235	857	200	200	59789	-69128
3236	858	200	200	59845	-69128
3237	857	200	200	59845	-69071
3238	858	200	200	59845	-69071
3239	857	200	200	59901	-69071
3240	857	200	200	59901	-69071
3241	858	200	200	59901	-69017
3242	861	200	200	59959	-69017
3243	862	200	200	59959	-69017
3244	862	200	200	59959	-68962
3245	863	200	200	60011	-68962
3246	861	200	200	60011	-68962
3247	862	200	200	60011	-68908
3248	860	200	200	60066	-68908
3249	862	200	200	60066	-68908
3250	861	200	200	60066	-68855
3251	862	200	200	60121	-68855
3252	862	200	200	60121	-68855
3253	861	200	200	60121	-68799
3254	862	200	200	60174	-68799
3255	862	200	200	60174	-68799
3256	862	200	200	60174	-68747
3257	861	200	200	60228	-68747
3258	861	200	200	60228	-68747
3259	861	200	200	60228	-68692
3260	860	200	200	60280	-68692
3261	862	200	200	60280	-68692
3262	861	200	200	60280	-68639
3263	862	200	200	60335	-68639
3264	861	200	200	60335	-68639
3265	862	200	200	60335	-68586
3266	862	200	200	60386	-68586
3267	861	200	200	60386	-68586
3268	861	200	200	60386	-68528
3269	862	200	200	60436	-68528
3270	863	200	200	60436	-68528
3271	861	200	200	60436	-68476
3272	863	200	200	60488	-68476
3273	862	200	200	60488	-68476
3274	862	200	200	60488	-68422
3275	859	200	200	60540	-68422
3276	862	200	200	60540	-68422
3277	862	200	200	60540	-68368
3278	862	200	200	60593	-68368
3279	861	200	200	60593	-68368
3280	861	200	200	60593	-68314
3281	862	200	200	60646	-68314
3282	862	200	200	60646	-68314
3283	862	200	200	60646	-68259
3284	862	200	200	60696	-68259
3285	862	200	200	60696	-68259
3286	862	200	200	60696	-68209
3287	862	200	200	60744	-68209
3288	862	200	200	60744	-68209
3289	862	200	200	60744	-68157
3290	863	200	200	60794	-68157
3291	861	200	200	60794	-68157
3292	862	200	200	60794	-68103
3293	860	200	200	60845	-68103
3294	862	200	200	60845	-68103
3295	862	200	200	60845	-68051
3296	862	200	200	60898	-68051
3297	862	200	200	60898	-68051
3298	860	200	200	60898	-67994
3299	860	200	200	60950	-67994
3300	861	200	200	60950	-67994
3301	861	200	200	60950	-67942
3302	862	200	200	61000	-67942
3303	863	200	200	61000	-67942
3304	862	200	200	61000	-67887
3305	862	200	200	61050	-67887
3306	862	200	200	61050	-67887
3307	861	200	200	61050	-67833
3308	862	200	200	61099	-67833
3309	862	200	200	61099	-67833
3310	861	200	200	61099	-67781
3311	862	200	200	61149	-67781
3312	862	200	200	61149	-67781
3313	862	200	200	61149	-67727
3314	863	200	200	61203	-67727
3315	862	200	200	61203	-67727
3316	861	200	200	61203	-67674
3317	859	200	200	61203	-67674
3318	862	200	200	61252	-67674
3319	862	200	200	61252	-67621
3320	863	200	200	61252	-67621
3321	860	200	200	61304	-67621
3322	863	200	200	61304	-67567
3323	861	200	200	61304	-67567
3324	862	200	200	61356	-67567
3325	862	200	200	61356	-67516
3326	859	200	200	61356	-67516
3327	861	200	200	61405	-67516
3328	861	200	200	61405	-67466
3329	864	200	200	61405	-67466
3330	867	200	200	61456	-67466
3331	866	200	200	61456	-67414
3332	866	200	200	61456	-67414
3333	866	200	200	61506	-67414
3334	864	200	200	61506	-67362
3335	866	200	200	61506	-67362
3336	867	200	200	61559	-67362
3337	866	200	200	61559	-67308
3338	866	200	200	61559	-67308
3339	865	200	200	61609	-67308
3340	866	200	200	61609	-67257
3341	866	200	200	61609	-67257
3342	866	200	200	61655	-67257
3343	866	200	200	61655	-67207
3344	863	200	200	61655	-67207
3345	866	200	200	61706	-67207
3346	866	200	200	61706	-67157
3347	866	200	200	61706	-67157
3348	866	200	200	61755	-67157
3349	866	200	200	61755	-67111
3350	865	200	200	61755	-67111
3351	866	200	200	61802	-67111
3352	866	200	200	61802	-67062
3353	863	200	200	61802	-67062
3354	865	200	200	61851	-67062
3355	865	200	200	61851	-67011
3356	867	200	200	61851	-67011
3357	866	200	200	61900	-67011
3358	865	200	200	61900	-67011
3359	866	200	200	61900	-66963
3360	864	200	200	61949	-66963
3361	866	200	200	61949	-66963
3362	866	200	200	61949	-66912
3363	866	200	200	62000	-66912
3364	865	200	200	62000	-66912
3365	866	200	200	62000	-66864
3366	867	200	200	62046	-66864
3367	866	200	200	62046	-66864
3368	864	200	200	62046	-66818
3369	865	200	200	62092	-66818
3370	865	200	200	62092	-66818
3371	866	200	200	62092	-66769
3372	866	200	200	62141	-66769
3373	866	200	200	62141	-66769
3374	866	200	200	62141	-66721
3375	866	200	200	62188	-66721
3376	866	200	200	62188	-66721
3377	865	200	200	62188	-66673
3378	866	200	200	62237	-66673
3379	866	200	200	62237	-66673
3380	866	200	200	62237	-66624
3381	865	200	200	62287	-66624
3382	865	200	200	62287	-66624
3383	864	200	200	62287	-66578
3384	865	200	200	62335	-66578
3385	865	200	200	62335	-66578
3386	864	200	200	62335	-66532
3387	866	200	200	62386	-66532
3388	867	200	200	62386	-66532
3389	870	200	200	62386	-66483
3390	868	200	200	62434	-66483
3391	869	200	200	62434	-66483
3392	869	200	200	62434	-66438
3393	868	200	200	62481	-66438
3394	869	200	200	62481	-66438
3395	869	200	200	62481	-66392
3396	870	200	200	62530	-66392
3397	870	200	200	62530	-66392
3398	870	200	200	62530	-66344
3399	869	200	200	62580	-66344
3400	870	200	200	62580	-66344
3401	869	200	200	62580	-66298
3402	869	200	200	62630	-66298
3403	869	200	200	62630	-66298
3404	869	200	200	62630	-66250
3405	871	200	200	62679	-66250
3406	871	200	200	62679	-66250
3407	869	200	200	62679	-66203
3408	870	200	200	62726	-66203
3409	869	200	200	62726	-66203
3410	870	200	200	62726	-66161
3411	869	200	200	62772	-66161
3412	869	200	200	62772	-66161
3413	869	200	200	62772	-66116
3414	869	200	200	62818	-66116
3415	871	200	200	62818	-66116
3416	869	200	200	62818	-66068
3417	870	200	200	62865	-66068
3418	869	200	200	62865	-66068
3419	870	200	200	62865	-66024
3420	870	200	200	62913	-66024
3421	869	200	200	62913	-66024
3422	870	200	200	62913	-65978
3423	870	200	200	62964	-65978
3424	870	200	200	62964	-65978
3425	870	200	200	62964	-65930
3426	871	200	200	63012	-65930
3427	869	200	200	63012	-65930
3428	870	200	200	63012	-65886
3429	869	200	200	63059	-65886
3430	870	200	200	63059	-65886
3431	869	200	200	63059	-65840
3432	870	200	200	63105	-65840
3433	870	200	200	63105	-65840
3434	870	200	200	63105	-65795
3435	870	200	200	63105	-65795
3436	870	200	200	63150	-65795
3437	870	200	200	63150	-65751
3438	870	200	200	63150	-65751
3439	870	200	200	63196	-65751
3440	870	200	200	63196	-65706
3441	869	200	200	63196	-65706
3442	870	200	200	63244	-65706
3443	869	200	200	63244	-65661
3444	870	200	200	63244	-65661
3445	869	200	200	63290	-65661
3446	870	200	200	63290	-65616
3447	870	200	200	63290	-65616
3448	869	200	200	63335	-65616
3449	869	200	200	63335	-65571
3450	871	200	200	63335	-65571
3451	869	200	200	63382	-65571
3452	871	200	200	63382	-65526
3453	870	200	200	63382	-65526
3454	870	200	200	63425	-65526
3455	870	200	200	63425	-65483
3456	867	200	200	63425	-65483
3457	867	200	200	63471	-65483
3458	870	200	200	63471	-65440
3459	870	200	200	63471	-65440
3460	870	200	200	63517	-65440
3461	870	200	200	63517	-65398
3462	867	200	200	63517	-65398
3463	870	200	200	63561	-65398
3464	870	200	200	63561	-65355
3465	870	200	200	63561	-65355
3466	871	200	200	63607	-65355
3467	870	200	200	63607	-65312
3468	869	200	200	63607	-65312
3469	870	200	200	63651	-65312
3470	868	200	200	63651	-65269
3471	870	200	200	63651	-65269
3472	871	200	200	63691	-65269
3473	870	200	200	63691	-65226
3474	870	200	200	63691	-65226
3475	870	200	200	63734	-65226
3476	869	200	200	63734	-65226
3477	871	200	200	63734	-65185
3478	870	200	200	63780	-65185
3479	870	200	200	63780	-65185
3480	870	200	200	63780	-65145
3481	870	200	200	63820	-65145
3482	869	200	200	63820	-65145
3483	871	200	200	63820	-65104
3484	870	200	200	63863	-65104
3485	869	200	200	63863	-65104
3486	870	200	200	63863	-65065
3487	870	200	200	63907	-65065
3488	870	200	200	63907	-65065
3489	875	200	200	63907	-65026
3490	874	200	200	63949	-65026
3491	873	200	200	63949	-65026
3492	874	200	200	63949	-64983
3493	874	200	200	63993	-64983
3494	874	200	200	63993	-64983
3495	874	200	200	63993	-64942
3496	874	200	200	64038	-64942
3497	872	200	200	64038	-64942
3498	874	200	200	64038	-64903
3499	874	200	200	64078	-64903
3500	874	200	200	64078	-64903
3501	874	200	200	64078	-64861
3502	874	200	200	64118	-64861
3503	873	200	200	64118	-64861
3504	872	200	200	64118	-64820
3505	872	200	200	64161	-64820
3506	874	200	200	64161	-64820
3507	874	200	200	64161	-64781
3508	874	200	200	64203	-64781
3509	874	200	200	64203	-64781
3510	871	200	200	64203	-64740
3511	871	200	200	64244	-64740
3512	873	200	200	64244	-64740
3513	875	200	200	64244	-64699
3514	874	200	200	64288	-64699
3515	873	200	200	64288	-64699
3516	874	200	200	64288	-64661
3517	874	200	200	64331	-64661
3518	874	200	200	64331	-64661
3519	874	200	200	64331	-64622
3520	873	200	200	64374	-64622
3521	872	200	200	64374	-64622
3522	874	200	200	64374	-64583
3523	874	200	200	64419	-64583
3524	874	200	200	64419	-64583
3525	875	200	200	64419	-64545
3526	872	200	200	64463	-64545
3527	874	200	200	64463	-64545
3528	873	200	200	64463	-64508
3529	875	200	200	64505	-64508
3530	874	200	200	64505	-64508
3531	875	200	200	64505	-64468
3532	873	200	200	64550	-64468
3533	875	200	200	64550	-64468
3534	874	200	200	64550	-64425
3535	874	200	200	64594	-64425
3536	873	200	200	64594	-64425
3537	874	200	200	64594	-64388
3538	873	200	200	64638	-64388
3539	874	200	200	64638	-64388
3540	874	200	200	64638	-64350
3541	873	200	200	64684	-64350
3542	874	200	200	64684	-64350
3543	874	200	200	64684	-64310
3544	874	200	200	64728	-64310
3545	873	200	200	64728	-64310
3546	873	200	200	64728	-64272
3547	872	200	200	64771	-64272
3548	874	200	200	64771	-64272
3549	874	200	200	64771	-64233
3550	872	200	200	64814	-64233
3551	874	200	200	64814	-64233
3552	873	200	200	64814	-64194
3553	874	200	200	64814	-64194
3554	872	200	200	64856	-64194
3555	874	200	200	64856	-64154
3556	873	200	200	64856	-64154
3557	872	200	200	64899	-64154
3558	873	200	200	64899	-64119
3559	873	200	200	64899	-64119
3560	875	200	200	64943	-64119
3561	874	200	200	64943	-64082
3562	874	200	200	64943	-64082
3563	874	200	200	64988	-64082
3564	874	200	200	64988	-64042
3565	874	200	200	64988	-64042
3566	874	200	200	65032	-64042
3567	873	200	200	65032	-64004
3568	874	200	200	65032	-64004
3569	875	200	200	65075	-64004
3570	874	200	200	65075	-63967
3571	874	200	200	65075	-63967
3572	874	200	200	65119	-63967
3573	874	200	200	65119	-63929
3574	874	200	200	65119	-63929
3575	873	200	200	65161	-63929
3576	873	200	200	65161	-63890
3577	874	200	200	65161	-63890
3578	874	200	200	65202	-63890
3579	873	200	200	65202	-63854
3580	874	200	200	65202	-63854
3581	874	200	200	65245	-63854
3582	874	200	200	65245	-63817
3583	874	200	200	65245	-63817
3584	874	200	200	65289	-63817
3585	874	200	200	65289	-63778
3586	875	200	200	65289	-63778
3587	873	200	200	65331	-63778
3588	874	200	200	65331	-63741
3589	873	200	200	65331	-63741
3590	874	200	200	65374	-63741
3591	874	200	200	65374	-63741
3592	873	200	200	65374	-63705
3593	875	200	200	65418	-63705
3594	874	200	200	65418	-63705
3595	875	200	200	65418	-63668
3596	874	200	200	65460	-63668
3597	874	200	200	65460	-63668
3598	873	200	200	65460	-63630
3599	873	200	200	65502	-63630
3600	873	200	200	65502	-63630
3601	873	200	200	65502	-63594
3602	875	200	200	65546	-63594
3603	874	200	200	65546	-63594
3604	874	200	200	65546	-63558
3605	874	200	200	65588	-63558
3606	874	200	200	65588	-63558
3607	874	200	200	65588	-63520
3608	873	200	200	65631	-63520
3609	874	200	200	65631	-63520
3610	873	200	200	65631	-63484
3611	874	200	200	65672	-63484
3612	874	200	200	65672	-63484
3613	874	200	200	65672	-63448
3614	874	200	200	65712	-63448
3615	874	200	200	65712	-63448
3616	874	200	200	65712	-63413
3617	874	200	200	65750	-63413
3618	875	200	200	65750	-63413
3619	873	200	200	65750	-63378
3620	874	200	200	65789	-63378
3621	871	200	200	65789	-63378
3622	874	200	200	65789	-63343
3623	874	200	200	65833	-63343
3624	874	200	200	65833	-63343
3625	874	200	200	65833	-63308
3626	872	200	200	65870	-63308
3627	873	200	200	65870	-63308
3628	875	200	200	65870	-63274
3629	874	200	200	65910	-63274
3630	871	200	200	65910	-63274
3631	874	200	200	65910	-63239
3632	873	200	200	65950	-63239
3633	874	200	200	65950	-63239
3634	875	200	200	65950	-63204
3635	874	200	200	65989	-63204
3636	871	200	200	65989	-63204
3637	873	200	200	65989	-63171
3638	874	200	200	66029	-63171
3639	874	200	200	66029	-63171
3640	875	200	200	66029	-63138
3641	874	200	200	66069	-63138
3642	874	200	200	66069	-63138
3643	872	200	200	66069	-63105
3644	874	200	200	66108	-63105
3645	872	200	200	66108	-63105
3646	874	200	200	66108	-63071
3647	874	200	200	66144	-63071
3648	874	200	200	66144	-63071
3649	874	200	200	66144	-63039
3650	873	200	200	66181	-63039
3651	874	200	200	66181	-63039
3652	872	200	200	66181	-63007
3653	874	200	200	66223	-63007
3654	874	200	200	66223	-63007
3655	875	200	200	66223	-62975
3656	874	200	200	66261	-62975
3657	874	200	200	66261	-62975
3658	874	200	200	66261	-62942
3659	874	200	200	66299	-62942
3660	874	200	200	66299	-62942
3661	875	200	200	66299	-62910
3662	874	200	200	66341	-62910
3663	873	200	200	66341	-62910
3664	873	200	200	66341	-62881
3665	874	200	200	66380	-62881
3666	873	200	200	66380	-62881
3667	874	200	200	66380	-62850
3668	874	200	200	66420	-62850
3669	874	200	200	66420	-62850
3670	874	200	200	66420	-62816
3671	872	200	200	66420	-62816
3672	873	200	200	66463	-62816
3673	873	200	200	66463	-62784
3674	874	200	200	66463	-62784
3675	874	200	200	66504	-62784
3676	874	200	200	66504	-62754
3677	874	200	200	66504	-62754
3678	875	200	200	66544	-62754
3679	874	200	200	66544	-62724
3680	872	200	200	66544	-62724
3681	874	200	200	66584	-62724
3682	875	200	200	66584	-62692
3683	875	200	200	66584	-62692
3684	873	200	200	66624	-62692
3685	874	200	200	66624	-62660
3686	874	200	200	66624	-62660
3687	874	200	200	66665	-62660
3688	874	200	200	66665	-62629
3689	875	200	200	66665	-62629
3690	874	200	200	66704	-62629
3691	874	200	200	66704	-62600
3692	874	200	200	66704	-62600
3693	874	200	200	66745	-62600
3694	872	200	200	66745	-62570
3695	874	200	200	66745	-62570
3696	873	200	200	66786	-62570
3697	874	200	200	66786	-62541
3698	874	200	200	66786	-62541
3699	873	200	200	66825	-62541
3700	874	200	200	66825	-62511
3701	873	200	200	66825	-62511
3702	874	200	200	66864	-62511
3703	873	200	200	66864	-62482
3704	873	200	200	66864	-62482
3705	874	200	200	66902	-62482
3706	873	200	200	66902	-62482
3707	874	200	200	66902	-62452
3708	874	200	200	66941	-62452
3709	873	200	200	66941	-62452
3710	873	200	200	66941	-62420
3711	873	200	200	66982	-62420
3712	874	200	200	66982	-62420
3713	874	200	200	66982	-62387
3714	874	200	200	67022	-62387
3715	872	200	200	67022	-62387
3716	873	200	200	67022	-62357
3717	873	200	200	67063	-62357
3718	874	200	200	67063	-62357
3719	874	200	200	67063	-62327
3720	874	200	200	67104	-62327
3721	874	200	200	67104	-62327
3722	874	200	200	67104	-62296
3723	874	200	200	67143	-62296
3724	874	200	200	67143	-62296
3725	875	200	200	67143	-62265
3726	874	200	200	67184	-62265
3727	874	200	200	67184	-62265
3728	871	200	200	67184	-62235
3729	873	200	200	67222	-62235
3730	873	200	200	67222	-62235
3731	873	200	200	67222	-62208
3732	875	200	200	67259	-62208
3733	873	200	200	67259	-62208
3734	874	200	200	67259	-62179
3735	874	200	200	67299	-62179
3736	874	200	200	67299	-62179
3737	874	200	200	67299	-62150
3738	874	200	200	67339	-62150
3739	874	200	200	67339	-62150
3740	873	200	200	67339	-62122
3741	874	200	200	67377	-62122
3742	873	200	200	67377	-62122
3743	872	200	200	67377	-62096
3744	875	200	200	67415	-62096
3745	873	200	200	67415	-62096
3746	875	200	200	67415	-62071
3747	873	200	200	67455	-62071
3748	874	200	200	67455	-62071
3749	870	200	200	67455	-62045
3750	870	200	200	67495	-62045
3751	870	200	200	67495	-62045
3752	870	200	200	67495	-62018
3753	870	200	200	67531	-62018
3754	870	200	200	67531	-62018
3755	870	200	200	67531	-61989
3756	869	200	200	67571	-61989
3757	869	200	200	67571	-61989
3758	871	200	200	67571	-61963
3759	869	200	200	67611	-61963
3760	871	200	200	67611	-61963
3761	870	200	200	67611	-61938
3762	869	200	200	67650	-61938
3763	870	200	200	67650	-61938
3764	870	200	200	67650	-61914
3765	870	200	200	67690	-61914
3766	869	200	200	67690	-61914
3767	869	200	200	67690	-61890
3768	870	200	200	67726	-61890
3769	869	200	200	67726	-61890
3770	870	200	200	67726	-61864
3771	870	200	200	67761	-61864
3772	871	200	200	67761	-61864
3773	870	200	200	67761	-61838
3774	868	200	200	67796	-61838
3775	869	200	200	67796	-61838
3776	868	200	200	67796	-61812
3777	870	200	200	67832	-61812
3778	870	200	200	67832	-61812
3779	870	200	200	67832	-61785
3780	870	200	200	67871	-61785
3781	870	200	200	67871	-61785
3782	870	200	200	67871	-61757
3783	869	200	200	67906	-61757
3784	870	200	200	67906	-61757
3785	871	200	200	67906	-61727
3786	871	200	200	67942	-61727
3787	867	200	200	67942	-61727
3788	868	200	200	67942	-61700
3789	870	200	200	67942	-61700
3790	869	200	200	67979	-61700
3791	870	200	200	67979	-61673
3792	870	200	200	67979	-61673
3793	870	200	200	68015	-61673
3794	870	200	200	68015	-61647
3795	868	200	200	68015	-61647
3796	870	200	200	68050	-61647
3797	869	200	200	68050	-61619
3798	870	200	200	68050	-61619
3799	870	200	200	68086	-61619
3800	870	200	200	68086	-61592
3801	870	200	200	68086	-61592
3802	869	200	200	68123	-61592
3803	869	200	200	68123	-61566
3804	869	200	200	68123	-61566
3805	869	200	200	68158	-61566
3806	870	200	200	68158	-61542
3807	870	200	200	68158	-61542
3808	870	200	200	68192	-61542
3809	870	200	200	68192	-61517
3810	869	200	200	68192	-61517
3811	867	200	200	68224	-61517
3812	868	200	200	68224	-61493
3813	870	200	200	68224	-61493
3814	870	200	200	68261	-61493
3815	870	200	200	68261	-61468
3816	869	200	200	68261	-61468
3817	870	200	200	68296	-61468
3818	871	200	200	68296	-61444
3819	868	200	200	68296	-61444
3820	870	200	200	68331	-61444
3821	870	200	200	68331	-61419
3822	870	200	200	68331	-61419
3823	870	200	200	68365	-61419
3824	870	200	200	68365	-61395
3825	870	200	200	68365	-61395
3826	870	200	200	68400	-61395
3827	870	200	200	68400	-61370
3828	870	200	200	68400	-61370
3829	870	200	200	68434	-61370
3830	870	200	200	68434	-61370
3831	869	200	200	68434	-61346
3832	870	200	200	68468	-61346
3833	868	200	200	68468	-61346
3834	868	200	200	68468	-61321
3835	870	200	200	68504	-61321
3836	871	200	200	68504	-61321
3837	870	200	200	68504	-61297
3838	869	200	200	68539	-61297
3839	871	200	200	68539	-61297
3840	870	200	200	68539	-61272
3841	869	200	200	68574	-61272
3842	871	200	200	68574	-61272
3843	871	200	200	68574	-61248
3844	870	200	200	68607	-61248
3845	870	200	200	68607	-61248
3846	870	200	200	68607	-61224
3847	869	200	200	68644	-61224
3848	870	200	200	68644	-61224
3849	870	200	200	68644	-61202
3850	869	200	200	68679	-61202
3851	871	200	200	68679	-61202
3852	868	200	200	68679	-61180
3853	870	200	200	68714	-61180
3854	870	200	200	68714	-61180
3855	870	200	200	68714	-61157
3856	870	200	200	68748	-61157
3857	871	200	200	68748	-61157
3858	870	200	200	68748	-61135
3859	870	200	200	68784	-61135
3860	869	200	200	68784	-61135
3861	870	200	200	68784	-61113
3862	869	200	200	68819	-61113
3863	870	200	200	68819	-61113
3864	869	200	200	68819	-61091
3865	869	200	200	68854	-61091
3866	870	200	200	68854	-61091
3867	870	200	200	68854	-61067
3868	870	200	200	68890	-61067
3869	870	200	200	68890	-61067
3870	869	200	200	68890	-61044
3871	870	200	200	68923	-61044
3872	869	200	200	68923	-61044
3873	871	200	200	68923	-61020
3874	870	200	200	68958	-61020
3875	870	200	200	68958	-61020
3876	870	200	200	68958	-60999
3877	869	200	200	68992	-60999
3878	870	200	200	68992	-60999
3879	870	200	200	68992	-60977
3880	870	200	200	69027	-60977
3881	869	200	200	69027	-60977
3882	868	200	200	69027	-60956
3883	869	200	200	69060	-60956
3884	869	200	200	69060	-60956
3885	871	200	200	69060	-60935
3886	869	200	200	69096	-60935
3887	870	200	200	69096	-60935
3888	869	200	200	69096	-60912
3889	869	200	200	69130	-60912
3890	869	200	200	69130	-60912
3891	870	200	200	69130	-60890
3892	870	200	200	69165	-60890
3893	870	200	200	69165	-60890
3894	869	200	200	69165	-60870
3895	869	200	200	69199	-60870
3896	869	200	200	69199	-60870
3897	871	200	200	69199	-60852
3898	870	200	200	69234	-60852
3899	870	200	200	69234	-60852
3900	870	200	200	69234	-60833
3901	870	200	200	69266	-60833
3902	870	200	200	69266	-60833
3903	869	200	200	69266	-60813
3904	869	200	200	69299	-60813
3905	869	200	200	69299	-60813
3906	870	200	200	69299	-60792
3907	870	200	200	69299	-60792
3908	871	200	200	69334	-60792
3909	870	200	200	69334	-60770
3910	869	200	200	69334	-60770
3911	870	200	200	69370	-60770
3912	870	200	200	69370	-60747
3913	870	200	200	69370	-60747
3914	870	200	200	69405	-60747
3915	869	200	200	69405	-60726
3916	869	200	200	69405	-60726
3917	869	200	200	69437	-60726
3918	870	200	200	69437	-60704
3919	870	200	200	69437	-60704
3920	870	200	200	69471	-60704
3921	870	200	200	69471	-60683
3922	870	200	200	69471	-60683
3923	869	200	200	69506	-60683
3924	869	200	200	69506	-60661
3925	870	200	200	69506	-60661
3926	870	200	200	69542	-60661
3927	870	200	200	69542	-60638
3928	868	200	200	69542	-60638
3929	871	200	200	69575	-60638
3930	871	200	200	69575	-60616
3931	869	200	200	69575	-60616
3932	870	200	200	69611	-60616
3933	870	200	200	69611	-60596
3934	871	200	200	69611	-60596
3935	869	200	200	69646	-60596
3936	870	200	200	69646	-60575
3937	868	200	200	69646	-60575
3938	865	200	200	69682	-60575
3939	867	200	200	69682	-60556
3940	867	200	200	69682	-60556
3941	866	200	200	69716	-60556
3942	866	200	200	69716	-60537
3943	866	200	200	69716	-60537
3944	864	200	200	69750	-60537
3945	867	200	200	69750	-60519
3946	867	200	200	69750	-60519
3947	866	200	200	69782	-60519
3948	865	200	200	69782	-60519
3949	865	200	200	69782	-60500
3950	866	200	200	69812	-60500
3951	866	200	200	69812	-60500
3952	866	200	200	69812	-60481
3953	866	200	200	69842	-60481
3954	865	200	200	69842	-60481
3955	864	200	200	69842	-60460
3956	866	200	200	69875	-60460
3957	865	200	200	69875	-60460
3958	866	200	200	69875	-60440
3959	867	200	200	69910	-60440
3960	866	200	200	69910	-60440
3961	865	200	200	69910	-60422
3962	866	200	200	69942	-60422
3963	866	200	200	69942	-60422
3964	865	200	200	69942	-60400
3965	866	200	200	69973	-60400
3966	866	200	200	69973	-60400
3967	865	200	200	69973	-60378
3968	866	200	200	70004	-60378
3969	864	200	200	70004	-60378
3970	865	200	200	70004	-60355
3971	866	200	200	70037	-60355
3972	866	200	200	70037	-60355
3973	866	200	200	70037	-60333
3974	866	200	200	70068	-60333
3975	864	200	200	70068	-60333
3976	864	200	200	70068	-60312
3977	866	200	200	70099	-60312
3978	866	200	200	70099	-60312
3979	866	200	200	70099	-60293
